[190221,196559,194546,188826,178838,173896,172161,169241,177987,187943,200927,199369,189916,177453,176751,173663,181216,191376,199293,206248,201180,188546,180453,180994,185396,189513,202146,211294,209844,198821,186268,175016,182161,187268,196261,203213,200577,195575,193894,191486,184848,181143,182989,185773,191946,203244,203221,195764,181699,168557,161586,168319,186547,207111,217651,216393,213728,205155,193482,176015,171394,185349,192623,203210,209396,208643,211822,206374,197157,173488,175821,186593,194109,203881,214486,215619,202204,191089,185749,181266,187882,200479,209328,208009,207784,207945,199957,190396,181256,181975,182617,190546,207752,213016,205343,190124,175568,175394,177771,181998,192971,204949,205005,206291,199408,186881,176328,173937,177878,180293,191606,202848,204446,205146,194818,180616,175986,179073,180123,200514,210354,204192,194945,188013,180805,179189,179675,187569,200794,212388,211563,204064,195778,195721,190897,193432,216906,221748,216988,214014,182799,171960,169395,173399,199343,202961,201922,190745,168204,170659,170733,173564,182226,194076,200081,199663,194554,185026,172703,170320,172942,175922,182736,196211,203388,198618,188715,180798,170746,168622,168378,172153,180963,194108,201703,199721,192309,182078,170646,166833,166001,174406,180514,193267,197797,194487,189453,178974,167640,163684,164055,173987,185953,195501,199644,198018,193493,184308,174356,167387,167170,183995,192873,197524,195580,179143,168229,166418,165238,172192,183203,194909,202074,197051,186726,181986,174242,171018,173663,181134,193723,204221,204223,203062,190858,178379,171305,172511,185339,194115,203685,207980,195944,187698,179989,177683,187898,197778,205195,209645,197737,184395,182124,181695,183266,190848,199956,207070,196246,187601,175830,168701,183319,189541,197202,201631,199759,192901,182965,174188,164491,163268,171942,184612,197899,202360,188094,179571,169841,163445,161831,168563,178563,189564,196856,192542,183626,174203,162944,160178,162479,165477,177988,189801,195545,194812,188495,178892,164251,156374,158274,167191,178071,189253,194608,193743,184351,171807,160915,157860,162860,168648,178511,188682,194048,192466,181293,171169,162387,159213,162561,176319,191589,194968,187353,170460,158921,152510,165751,179698,189509,193466,185423,172296,158050,153993,159733,169470,181149,187611,194648,194918,182416,169688,158714,152216,153302,164978,176191,187964,194839,193761,185829,170202,151375,155609,164024,171916,182648,190639,190629,180508,167488,152456,153795,159628,171129,187858,186346,176716,165716,148925,153478,162226,173092,184921,193153,191396,180519,169734,150205,149276,158494,172358,191051,192120,181899,165311,147834,149695,162355,175644,190250,182037,176287,166882,153995,148386,150585,156943,167861,180564,184716,184452,175841,149829,147131,149536,163230,174496,183748,189482,187704,175446,164394,151779,144056,148412,159184,174878,182919,187290,187246,178550,155408,151136,154808,159856,184196,188010,186356,181059,150133,148403,152909,163300,187792,194225,194814,185571,168839,162266,165152,179513,199741,202701,196394,183298,150229,148533,149671,160077,172878,180547,189330,187098,175453,164770,151803,145991,148576,170793,184265,189155,186302,174088,160306,152311,150354,151697,168758,181944,184610,180690,161594,147031,140273,143254,171761,184238,189024,186429,176205,162306,150098,147910,150038,174863,187250,188269,180815,162885,150859,145436,151953,169484,182369,189235,186678,176401,164031,153152,150201,151183,169538,183851,192307,188770,173618,162560,153812,148113,152989,162816,174619,188951,192672,191149,181418,168855,159438,156414,161756,172451,182493,190803,192611,186233,174108,159334,153444,171159,182213,191395,193245,192392,183461,172486,160778,156534,159488,168473,181136,196572,199241,188779,179013,167712,164466,173641,183500,196136,199701,192540,179244,166561,161278,162355,172607,183626,194208,200513,185228,173828,162574,163015,163771,170554,178424,186631,191474,189271,181399,171118,157716,149418,152477,163461,179706,190165,187598,186673,178222,169876,158146,149568,152522,166809,178560,188923,191781,186084,175001,161710,154326,151913,155043,164478,173875,183562,189348,185674,176015,166778,156205,150181,156205,165136,173189,185330,186923,183941,176024,168548,157955,154747,164687,176492,184933,185364,172951,163849,152276,151879,163906,178321,188084,191238,186353,174033,162579,155281,150733,153858,164242,174288,189968,184998,176671,163524,154356,151233,154091,161494,172875,189856,186039,171897,162045,148783,152060,161515,172886,191811,185518,175356,163990,151364,151906,159999,172904,185021,180048,173204,165169,145906,148349,162656,177498,192250,188176,175525,160949,151608,154699,163037,174274,184017,187988,184281,173199,165358,157636,150358,152357,166531,178160,186089,186834,183324,171891,150783,146171,148909,160256,169423,179696,182733,179707,172798,163296,150741,142007,143024,154559,168092,178254,182528,176766,166593,146666,144381,147799,157057,165669,175578,182708,178714,166456,147174,145774,148494,155509,176856,182909,178756,170812,146400,142735,147473,159099,183432,188744,190033,180553,162699,161980,166376,178006,187069,195243,196575,190807,178063,160839,146976,143343,145249,153573,177616,180848,179125,169816,158776,147043,143399,148233,168715,176779,182287,179848,152925,139628,137473,142458,166448,175223,179674,178399,154820,144578,142036,146467,167456,178988,179499,175543,164582,156933,146221,142003,146876,168400,180176,182178,177890,157900,146539,141724,145134,166866,177478,183267,179515,168124,153213,146508,143968,147481,157674,168436,178054,182086,177736,168858,159218,148279,144205,148843,158188,169551,181982,187106,167759,155220,149404,145341,149510,160883,172176,182185,185169,168951,159873,150068,146084,164263,176657,186856,189612,171659,162148,148078,143153,165337,177999,186174,190762,180826,166996,155398,152569,164900,175324,185592,190850,188912,176744,164448,150433,146724,153639,164011,174733,184894,187738,185623,174199,158661,147992,149209,158989,170328,178986,181770,177690,166981,153732,143999,144003,156279,168526,180118,182953,177531,165459,151296,139661,143857,157343,168999,177239,175651,163321,148803,140432,144244,155026,166554,178477,180773,174745,163754,152211,141984,139028,151270,163801,175536,175880,163073,150396,140696,143556,153849,167558,176359,176839,171483,161108,151142,143635,141217,144687,152216,163806,176034,178772,172345,162740,152308,141463,136016,144211,157495,168204,174007,168498,157199,147087,139142,143791,152093,164294,175428,178065,175066,163888,151234,137669,140826,152033,163551,177588,172038,160937,149239,136553,143664,151353,163364,175099,175520,173180,162149,147027,136524,137893,149112,162491,179738,172934,160695,149359,137684,135583,142053,151533,160870,173630,178816,174188,163284,147937,137826,135651,139670,151998,166956,177724,180160,173463,162034,148506,137226,135845,141883,151848,165498,177285,181541,177200,158916,139961,139687,143675,152903,171363,174296,169532,158812,148006,138850,135761,140583,151638,171983,173648,168511,160548,136369,133711,138410,150478,173966,175389,170304,160266,133110,129174,135149,149776,167962,167478,166846,157859,145444,136982,135796,141369,160032,174098,180158,176551,152240,141149,137386,144158,172884,183776,187543,187211,166514,159917,161176,164721,183219,188908,188242,177737,150456,138116,133679,137805,162258,176899,180130,171435,149069,140685,135849,140951,169346,176174,175690,170652,148276,142684,140478,142904,167183,174534,175084,169660,158240,148770,138736,135745,143594,156625,167344,176566,177191,160035,147845,138377,136989,143454,156918,168526,177311,177443,172444,162634,152253,143336,140084,143251,154079,166453,175866,178206,175458,163272,148399,141633,140879,157134,168588,175454,177524,162919,152123,144909,142245,161768,173489,182061,180228,160096,150223,143276,142545,160231,171948,180093,178529,168944,156141,147648,145128,152598,161574,172276,181859,182684,178475,170030,161101,152361,147201,151233,162680,174690,185334,177830,170125,161824,152574,155323,164833,174428,182344,179010,170331,159349,148181,154090,164523,175637,183082,180874,172904,164062,154804,146759,149583,158233,169361,175890,167734,158359,150197,139554,144964,156406,168426,177059,166354,154561,146173,141206,142861,154244,163969,174044,178497,173064,159739,144251,136041,136601,139226,149354,163820,172123,172448,166706,155173,146198,138338,138759,146981,155247,165776,173222,173006,166026,154200,147419,136969,143337,158730,163961,168284,167142,164423,150448,142393,137204,156725,166087,165233,159650,150665,143267,134005,142371,151639,163268,175216,167603,157023,145630,135960,142925,152473,161647,168595,173674,167646,157446,149583,141686,139965,143245,154402,166201,172933,173505,165453,156393,139781,135299,142566,155326,164891,172023,169608,163251,156142,139403,138283,143801,153786,163834,172536,174931,169099,156000,139664,137062,143713,154258,163743,173291,170353,163731,154057,141601,141731,146523,153408,161249,167482,167869,164994,158727,140128,139083,144676,154908,166733,172134,171519,165407,159794,141339,141334,146081,154521,167571,170418,171761,165405,155548,149171,137899,132484,140624,153137,163113,170960,169141,162426,153143,142454,136063,137269,145058,164352,171423,169445,163423,142717,137946,134308,139804,160621,165259,165141,161929,142776,135725,135309,143899,156889,165349,170584,171775,160783,142093,134096,136491,144117,165291,172448,170816,166761,148944,142416,144371,153846,181688,188243,188396,184290,173799,160818,150198,145869,151978,159219,166228,170538,168649,160453,153569,145209,138478,137488,142511,150733,159863,170029,170946,163053,153198,141927,132457,134844,154168,162787,168718,165760,160114,152081,143332,137122,134501,138716,148188,161883,170558,168059,163176,154543,140989,134801,136632,151461,161158,170858,172113,155246,143893,135676,134497,139574,152133,162600,168443,168528,154073,144885,138014,136190,145338,158369,166418,172569,171816,165574,154127,143061,136785,135024,143594,152794,161827,170259,165236,157179,148450,144246,144999,153657,164386,172933,164489,155022,146367,140741,147489,160587,171261,177102,170243,158534,147376,141984,149830,156951,171734,178746,172174,163553,153398,145301,155200,166006,174322,176944,171656,159803,150136,142468,154174,164414,173973,178429,176936,168941,160429,150918,143133,144915,153159,161359,167604,173943,175759,169076,155698,143968,140296,143171,150511,156712,165479,170069,165212,155031,142546,137418,139824,145687,151756,162505,170571,171330,163872,151110,140920,135971,143131,152816,161901,169145,162258,152698,142639,134877,141728,153431,164261,167689,162334,152399,144220,134084,142744,151682,160846,169053,162292,151421,141781,135188,136931,144718,154668,163080,167166,166484,160309,150273,140590,135401,136882,142359,155558,167249,167814,161709,151413,136699,135415,140819,149796,170547,171466,163759,154308,134822,135279,142484,151219,170674,171583,162006,150061,132406,131681,140360,152781,168729,167086,160509,149503,133504,136316,142781,153241,167042,169729,163564,152393,134565,133304,137603,150898,162687,166277,164204,158217,150939,139269,132083,135729,144677,155064,165438,171130,169128,160061,147293,137408,130678,133538,141454,150664,161796,171149,171065,163303,139083,132266,132520,141711,162496,168642,166047,159844,149811,139703,135929,134353,142288,161977,168496,170173,162960,140533,135869,134900,140957,162506,169961,168443,160335,138529,131161,129461,139577,161188,167986,167863,159261,146686,134421,126817,131336,142035,150384,158514,167587,168857,158931,147198,135288,128053,129032,137403,148933,164926,170200,168197,157938,146685,136441,127750,130973,139977,152304,166616,173761,171763,163256,150796,137976,134589,138671,146912,159332,173069,182256,181870,174586,168904,160893,155333,156376,159449,166460,174086,177043,171715,147578,139669,131076,130863,153649,165768,168888,167108,153738,138990,130261,132094,142674,152763,163226,167256,163745,157416,147203,137985,132464,134254,142441,151942,161791,166941,160532,149540,136586,132304,141502,151705,161680,166863,167846,160014,149873,137744,129216,140535,154241,166896,171071,160312,150081,140102,136678,144148,153953,162528,169586,157669,148372,139834,134367,145094,152085,160406,165919,166631,151516,140849,134588,144339,157043,168102,172398,168747,157116,146248,137379,135019,139496,149004,160138,168452,170576,169196,161671,153456,143761,136550,134901,144911,160511,172806,173988,170721,166848,156474,146763,141969,138468,147190,162143,174806,178753,177155,170883,157889,143659,140128,144231,153829,160087,172017,178153,170088,157711,145669,142771,150243,160546,173552,174084,164963,153548,142959,134929,144669,157523,170906,171581,167380,160956,148329,138506,134483,134920,144466,154829,163104,167686,167713,159946,148282,137196,134671,135101,143703,153141,171059,168471,157393,148950,131499,134061,143483,157261,172116,169609,161521,145843,130187,131854,142358,156834,170579,169221,161803,149398,133731,135509,146528,154809,169698,166966,157739,146868,134626,134344,145482,152986,165196,171536,168966,159731,149009,135092,132531,138866,147032,154460,162940,168883,168205,161016,145683,132676,131641,133789,143465,153029,165274,172806,170156,159123,146190,135038,130961,135719,141839,165296,171539,169035,159987,147443,134377,128057,131790,144259,155571,163631,166407,166679,157048,145064,135426,131577,136398,143441,167984,173293,167361,159241,135143,131331,133486,141678,165980,170977,167952,157316,139988,132697,131045,142989,163239,168153,168849,159317,146870,134341,130608,133529,143491,151313,160476,167405,165314,154461,145004,134804,126516,130030,150444,162109,166188,159929,143701,137207,131718,129558,135188,147285,160854,161984,161234,145919,133994,130198,131603,136157,146061,156998,161958,160671,142160,134336,126943,126576,151086,160042,164509,165106,141926,131408,127085,132585,157659,166139,169806,169546,148736,140474,139695,144217,154459,165757,175999,185191,182735,173220,160411,146264,139309,138177,144725,152584,158943,163468,158904,149693,140569,132685,129443,131651,140649,150078,161086,165528,153993,142141,130301,127363,140841,151108,162493,163014,155858,142509,130176,125974,143024,152611,160672,164874,153711,140808,130855,126791,130038,138090,149994,161749,166559,155558,143862,135565,133463,139243,151919,163899,169053,163301,152745,142925,133648,131948,134204,142493,153361,163002,168505,165903,157726,146824,134867,135933,142315,152575,165370,172611,168394,157683,146966,133056,127488,136658,146202,152407,162628,168852,169386,159687,149480,135428,129257,133020,146523,160844,169582,170589,165030,153524,144094,136939,141328,151844,162348,172636,173479,163516,153328,143806,145686,154173,163654,176370,173481,165456,155375,142831,139248,144237,153036,160706,169803,175849,172519,162847,154066,145312,138684,139967,144918,155566,164309,174324,172610,159748,146926,134638,136406,145772,157588,162299,162099,155634,144587,130598,132573,143846,155391,166514,164928,152421,143526,129435,135451,143497,149834,167178,165421,155071,144589,128456,133048,146191,157926,165651,168637,166267,155554,141486,129440,135524,146138,152599,164662,167127,164599,154468,144952,135091,127873,133338,146657,158914,165981,168146,163928,153861,143466,135626,131253,134032,143244,152706,165439,169593,165989,153754,143816,135071,131794,135145,145832,156057,164826,168159,164310,155779,144076,132866,128578,133845,144656,156594,165536,168440,164808,156257,133821,129944,134301,144878,169255,167797,161028,153249,133703,131687,134077,144843,154445,165288,169328,165405,155269,145256,136649,132578,133134,144069,154663,167373,171455,169448,157962,144561,134177,133664,136014,159707,169727,171440,164718,145944,136911,132497,136506,155869,164194,163863,159181,151743,142938,133753,129996,133121,155936,165384,169048,163496,142322,135164,130381,129710,153196,163626,166930,161690,140702,131370,129393,132292,152216,160878,162458,157796,141956,133170,131658,136431,143569,152480,166389,168221,165880,156361,144603,137189,135882,141864,155611,169843,178453,183061,181364,170848,159105,148311,143396,141379,149178,155551,163341,166753,146228,137624,128964,125556,129864,140377,153110,161739,163364,149468,140759,131492,126745,145087,153890,161273,163385,152471,141819,130697,127080,142854,155578,166552,168801,154084,141104,129014,123909,143595,154475,166400,166281,159429,149163,141816,131353,126330,134135,143589,152178,162762,170920,164295,150457,142376,131535,133336,145225,155864,165718,162735,153256,139584,130547,133824,145155,156693,166248,168341,164163,155764,143203,135463,137158,147264,159095,166011,166513,153113,141200,134444,140509,149522,159906,165848,170876,168447,157722,144511,137184,142546,151258,160254,167914,166304,157610,150416,141738,139871,145885,150284,159379,173268,177583,171709,159806,148656,143232,142896,145814,154506,162669,173123,175871,168754,159470,148158,139108,134514,139101,148320,159825,171143,166394,154693,144090,131484,135753,146394,156716,165710,168807,164703,152960,141153,130723,135229,143008,153284,166781,159718,147624,139011,129031,134281,144329,155871,169100,161617,151771,140245,123149,130483,144046,155058,168479,171146,161472,151525,135218,127706,129743,133758,143594,154651,164088,167324,161859,148855,138449,127704,124846,131090,142171,153778,163581,160275,151375,137998,126460,127150,132714,143389,161566,163024,155731,146866,125363,121758,127816,142837,155869,163383,164098,158303,146755,126035,122751,128586,139911,159014,160788,155256,144809,126803,124885,129584,140606,156544,159084,154416,145141,133836,127535,126596,128198,135208,146214,156138,160878,154301,143221,132404,125083,122526,127758,149373,158782,161292,157734,134748,124291,123086,129040,151235,161565,162415,154791,132678,125114,125697,133965,150823,158333,160286,158369,151244,137548,126519,127459,127695,150213,158253,161973,159079,137134,129564,127163,131610,147784,159279,160643,156920,134593,124556,122431,129458,140319,149552,157229,160523,154188,140696,133682,125208,124072,128383,138316,151090,160608,157821,152625,145092,132534,124127,123134,137353,148794,159468,162481,156606,146584,132876,121406,122099,128864,140603,146953,154799,162368,143656,132332,124984,126787,134249,145071,153077,162099,167938,153482,144778,138874,138558,160470,171457,179408,180758,160436,145199,133619,125474,141131,154180,162736,159803,152581,140589,131133,124448,125842,131240,140352,152739,164374,157524,144983,130056,121347,129241,140434,152186,160922,159218,148146,133929,121833,121670,127504,141281,153916,161253,156979,142269,129913,122041,127886,139492,151137,158831,156642,149488,134314,124456,126083,138384,153621,160463,154316,145631,131641,125197,127731,136866,152609,161028,152617,144857,132621,120664,119905,125298,133508,146936,161446,162148,157158,147029,137454,129099,122230,126703,139296,152619,166618,158400,145191,133409,122508,119258,128371,143224,155380,164983,165991,159870,149134,137981,130576,128769,135205,148463,159118,164723,158962,151045,139689,131735,136989,150026,165445,166781,159682,146629,138307,133803,140938,151149,163183,170203,158886,148858,138484,130082,128314,133558,144989,155567,160751,163878,156958,145225,133353,127376,127942,129591,137705,156517,158584,154999,145527,135169,126244,122657,130019,141182,160959,161626,156446,142872,130116,126032,133509,144173,162463,159825,152818,143477,130896,125371,125745,133428,147036,165790,164696,156724,146629,129889,127853,134608,146909,163729,163821,160273,144505,132581,128891,131094,136382,145830,165097,166381,158240,148581,140866,130998,132140,140501,150401,157901,164270,165533,155922,145669,140015,132265,129146,135406,146899,159198,165529,165208,158672,151898,138954,130064,131294,139759,155747,162526,164940,163539,137498,131066,130786,137186,156644,165889,167298,158104,148846,137726,132898,133394,138818,158988,167859,165361,156504,140327,134567,132647,142816,162619,164453,162541,160106,152180,143983,135539,134125,138769,147675,158339,165236,166657,161883,153271,143729,134194,134628,152146,161829,168568,165928,159958,148641,137328,134096,135053,154717,162242,167713,167966,150694,138537,137161,137484,148928,164066,172771,167726,157019,148831,137462,128486,128175,148317,162471,170741,169958,149426,140098,136040,132893,137936,150083,161466,167232,164265,153248,139118,129829,128481,148241,162449,169476,169870,161844,153579,145518,140250,138679,146166,155001,161791,169983,164786,156107,147007,140763,144547,158566,170253,185195,193133,185244,174166,160307,152529,150483,157309,164493,168546,165488,156399,145729,138669,142518,155088,167971,174993,164839,153121,140180,136878,146625,158163,167948,171955,170903,165977,154531,143158,137271,144411,155321,168149,175584,164634,153808,145292,139127,143036,146194,155674,166331,172421,172891,163874,153914,145764,140889,139318,147387,158649,169223,174588,175574,168096,154834,146198,141288,143308,149949,159259,169608,174126,174909,169444,157836,148144,142196,142829,150464,160459,169781,175378,176918,170467,159930,152224,146427,147005,154548,164500,173244,180221,174658,162204,152850,146883,156581,165699,172678,183234,176943,167794,161413,153953,161702,173273,183864,188666,188826,181645,172319,162829,155790,153533,162126,173809,194026,186254,177131,170488,156771,155591,165077,173584,186143,184539,176636,167966,153182,152807,159872,169883,182544,182424,175820,166373,145876,148649,157776,167601,183451,177902,169073,158812,143432,147762,155430,164006,172389,177111,178634,170271,158796,140835,142684,151227,160859,175960,175416,165541,155926,147494,142786,146151,152828,159561,172076,177410,175324,166059,157603,145092,138614,140548,149184,157305,167833,173590,173293,165348,155419,142163,137509,141461,150087,163176,175038,175685,169898,162968,140613,136929,137356,146142,157276,166429,171039,170429,163793,153174,141284,137223,140516,146749,158501,171004,176165,175926,165033,144959,137023,136678,144204,168921,175783,172927,162024,143371,136660,140121,148621,157484,168528,176073,169238,161029,153129,141612,137425,138336,155171,166136,172677,171576,150936,142472,134971,136993,155056,167192,172185,170228,151205,141025,136365,135866,154489,164676,170798,169940,160852,148033,133867,133674,138559,155832,167147,173078,170993,149064,137852,132395,135277,155094,168635,173394,168778,148792,142403,134971,136223,154854,168332,172494,168314,158668,147823,135212,128612,134633,147803,156818,165692,166690,165493,159511,147086,133869,130036,133352,142465,152891,162448,167653,157684,148333,137330,134078,139144,148291,162983,171204,160871,149044,134234,132680,137557,142841,151381,159913,170399,163383,152034,140973,139551,154831,165661,180087,188013,178906,169983,157836,147697,154408,161859,169641,172147,160752,149233,135401,132286,135278,143678,153698,163616,166924,165449,158160,148261,136839,130656,133721,143273,155464,165139,168458,168069,157528,146343,135983,136511,138660,144025,156109,167308,168929,166910,161416,146588,134312,135062,143093,155898,166259,171966,161296,146219,139069,135838,142951,155007,168244,170413,166891,159746,149813,140187,136212,143964,155448,168489,171604,159457,147866,137013,136399,148938,162463,170156,174338,170681,161702,155517,147013,143242,145273,151439,161683,176241,180680,172809,167356,155293,146492,147766,157449,167740,182466,180318,169682,161244,143617,145342,159505,173928,186931,184720,175359,165234,146120,149725,162696,173993,187722,185233,177011,165133,153586,156445,163594,173598,188399,185676,177352,164183,149626,150683,159435,168863,183516,178067,168496,156694,147241,146288,151365,158092,165393,176605,178306,171218,163867,156464,148358,143597,144387,152533,175396,177644,176616,169120,155616,142642,140475,146568,154856,166384,179184,180901,174481,165682,155981,146650,145351,146704,155308,176539,177541,173623,163180,148639,148428,145398,154945,174865,178691,175046,164526,147102,146619,149314,158576,177656,177751,176166,169376,143698,142044,146836,157408,167576,174799,178979,176511,167099,154458,145934,145281,149156,155696,162194,173169,178166,176133,156748,150063,146623,148758,166368,171619,177822,175337,158312,148318,144606,147503,165062,174475,178905,174890,164378,155683,146084,141725,147594,167945,176841,180273,176530,157209,148739,146218,148948,171989,178684,181087,177556,158121,150469,144880,146757,168479,177811,180476,174860,164478,156196,148462,147429,147503,152861,162894,174208,176051,174261,164454,155089,148445,144058,146636,155359,166338,174603,176820,175414,165378,154131,145636,145043,148136,155088,161483,169009,174493,167693,157767,150068,146724,155348,163823,174910,179605,179467,173213,162963,151781,148488,162784,172563,182491,186791,174203,167134,159538,160154,174381,184786,191511,194239,189244,179449,164154,148991,143083,145281,153498,164306,174183,177998,173984,165498,156962,146541,146250,156111,167639,179102,181634,175769,165711,155928,147650,149445,155912,166878,176875,173473,163296,155854,147883,145594,149541,160063,170271,177304,171373,165006,154134,147844,150070,159740,169739,179199,176584,166373,156160,146875,148616,152175,157433,163417,176911,177309,170538,161623,151334,151072,159352,171812,181607,184613,180433,171042,161468,151051,149547,153563,162779,172058,178974,181461,176093,168968,158911,145199,143682,152174,161353,170953,183653,178896,169026,158679,151351,152281,163941,175013,187953,184706,174916,163563,156169,152816,157460,166448,174758,189368,185006,174076,166604,157554,163706,171823,176650,189861,184346,175280,166664,153516,153068,162741,176002,188611,186996,182002,172488,161671,153560,150305,153324,164554,170751,179036,181721,180257,170200,161196,151079,148315,151856,159995,170777,180144,183251,178542,166110,154834,146454,144920,150119,158016,168574,178983,181356,176972,166785,155180,143695,142401,148888,159812,170657,179039,179881,176749,168582,158759,148577,142723,145513,157447,170143,176923,181021,176871,165293,146922,144003,149059,159327,178051,180138,178183,166119,147133,145944,149229,156819,167126,178483,182340,178054,167171,156008,146814,145976,150294,168287,178969,179968,175651,165611,154745,146858,147714,150788,167580,172794,175264,173541,158090,147491,147433,152640,158366,168225,175668,177728,174321,155270,146904,146348,150123,170418,178291,180554,178065,153139,144741,143498,149471,159172,168200,176200,179448,176060,157816,146265,142103,147376,170214,179888,177893,171773,166573,157574,150163,147685,152684,162119,170709,179896,180289,176126,167042,156216,149045,146843,152749,163774,173684,179636,178786,172906,162913,154235,145434,144837,151729,160238,164869,173379,178444,174554,165498,152373,144061,144861,149645,158317,169551,175100,176037,163935,154586,146045,140563,159506,170589,175332,174813,166120,156714,146372,143623,160070,169008,174460,178972,167657,156416,147044,145137,149852,161826,175020,185465,185706,183466,176839,169458,167682,170628,178016,186225,194006,187773,173941,158870,147343,150003,161718,170018,177516,173055,164178,155713,147968,149680,159238,168867,176091,174193,165073,154376,144809,150455,159974,168866,177837,173251,165381,152827,144557,151729,160628,166952,174286,174292,162406,151900,146851,150726,162088,172610,177386,174176,169630,163415,156918,148508,145686,150298,160098,172138,178538,175631,167719,156774,148025,146016,150019,160871,172878,182282,182093,176405,166268,156734,146650,142864,147330,156933,172266,184888,176471,164796,157769,151259,155904,164292,174321,183898,173849,165171,159681,149276,155721,166336,176757,184507,183418,172040,158634,151573,156303,167463,179703,189161,184704,174853,159628,153482,151662,155316,167644,181342,187016,187286,180405,171538,154178,153221,157776,167957,186684,187975,180744,168725,146569,146773,156894,165843,180518,182806,174989,164414,148018,147189,149445,157324,178649,178784,172504,163669,142770,141178,147091,156224,174558,177991,169646,158014,144381,140593,148501,159637,178216,178677,171024,162130,144238,142563,149699,156751,167066,174260,175077,171867,162276,150623,142733,143751,153545,164093,168164,174515,176959,169667,158749,149957,143683,138283,149329,157294,164689,173770,173751,167791,151141,143588,144067,152946,168142,173650,176241,170603,154583,146016,144951,151603,167142,175511,177176,170512,151356,145371,143944,150062,171166,175910,175739,169975,148361,144313,144605,150255,169478,173987,175569,169469,159546,150736,143267,141648,148697,159586,167777,174654,178185,173070,158741,149878,145194,144055,159857,170270,177169,176073,170112,159864,150826,144848,144577,160130,169396,176614,178566,160945,152571,144219,140978,161079,169731,179134,177216,172972,164248,151750,141032,143514,157788,169358,175277,174032,157751,149446,145949,145823,159028,169757,176886,177705,157176,145187,140323,142526,146832,155965,168953,175574,175193,169986,161829,147298,140856,149443,157021,166028,175571,166776,158009,150636,144514,147731,161329,174001,179667,171829,160066,148834,147742,152769,160287,171373,181789,190503,190713,176073,164668,162299,166449,172563,179545,180626,168792,158005,151066,146001,148386,159295,168734,176823,177573,169840,159279,149393,144501,149764,161526,171499,179374,177708,166143,155715,148746,144514,145693,152006,159769,168996,174748,172919,170342,162475,152183,143195,143989,150854,160462,169911,176716,177553,166554,157213,150791,146039,146656,151534,161463,170514,175365,177989,174264,161661,149841,143736,152240,161916,170256,179591,171171,159579,151259,147946,155396,165042,176506,178941,170065,162846,153872,144713,149628,162026,176973,178701,169264,161160,154288,150255,146209,154987,165271,172826,178729,179844,174386,167116,157059,150064,151977,158062,167158,182229,181142,176358,166098,153426,151883,160554,169090,188274,187168,177057,167933,153264,154493,157943,166530,187476,184450,175463,164774,152361,153589,157466,166272,179483,177346,172441,162788,145584,146973,152921,164379,180802,179676,170093,158894,145264,138073,142089,151241,161238,175108,175006,170288,164341,154274,145236,141533,144028,150622,168158,172783,171925,166542,156284,145068,141384,142403,151279,170906,175748,173759,166251,153403,144428,140878,140448,148790,170111,174200,172063,165425,148941,142056,143193,148766,168254,171651,170423,165012,147720,141930,141498,148267,168084,173461,173470,163546,144233,138163,144018,153907,159714,167613,174419,174125,169039,158183,146418,141192,141905,147338,156819,167908,175783,173191,154486,143617,138274,141804,152562,161337,170519,177189,173258,152118,142424,137561,140735,149682,158894,168666,172564,174041,158136,145644,140531,142318,157468,169838,176173,172469,164043,152242,142718,138519,141675,159374,170227,174770,171229,155501,147306,140703,139957,160458,170445,173923,171073,155321,146124,140663,140622,148746,159544,170848,176130,174345,165601,156553,146604,141218,143227,152273,161055,170664,175762,172345,166353,155455,142968,140287,141705,148429,160343,167691,173426,163289,151707,142189,138801,140592,145511,154154,164431,172502,163254,155158,145384,136797,146041,157789,168227,174539,161613,151146,145301,139856,149638,159628,166772,169193,160592,150156,143309,139336,153343,159836,167319,174138,175538,170554,160987,150065,148027,152422,166819,179348,191283,195515,192491,185849,174064,160291,150097,154669,161229,171238,173379,169393,161440,152028,145047,141135,140469,149586,159685,167457,171976,171029,164845,154453,145417,141923,142166,149306,157884,169076,175086,173206,166056,154788,145045,141677,142078,151473,161436,169126,173258,165579,155993,142601,142303,152376,163983,174073,175784,165608,152229,142342,138576,141781,150616,162642,172616,175698,172996,164908,154592,136742,141349,158669,170199,177149,173908,166204,156094,146392,143134,144859,153864,163639,177449,172734,165991,160397,142242,141686,152784,165658,181108,179316,170699,160304,147229,150488,159388,168788,180360,178101,173290,163795,147540,149874,160401,169908,184534,181466,171581,162911,152789,153609,162923,174127,182961,187663,184103,173581,162029,153122,151883,151790,160198,171754,181876,184869,180753,173606,163001,152843,149395,148973,156047,164494,176288,183313,179481,169551,158725,147803,144291,145933,157842,164847,172956,177399,173327,162751,153215,144762,140092,142506,151020,173006,177834,176362,164818,143441,139660,141672,150901,167638,172756,172488,165688,145554,139263,141931,150653,172477,175483,171268,161484,156204,148631,144016,146146,153951,162141,169699,174879,171404,162794,154054,146759,141308,143166,161267,167844,172806,173364,154191,143622,142496,143648,150943,160566,174053,179652,173862,154411,143156,140198,143094,162505,172574,178163,173229,154327,144091,138546,141918,151788,163010,173004,176193,173956,155926,146814,142133,143238,158438,169468,175170,172923,154483,143507,140048,142872,150934,162653,172948,176240,172860,163092,154588,147294,141898,140829,149627,161146,171338,175022,171999,163777,154436,143964,138591,141705,153461,161379,170104,174514,171123,162610,151466,141516,139335,150204,159458,170997,175921,171805,164380,154015,143381,138120,149664,162981,176273,176345,170838,161443,149296,139121,138394,149906,159613,169903,172104,157330,149188,143361,140642,141434,147476,157566,166844,172411,169133,158974,148548,141021,137132,138850,151188,163228,170549,167961,161222,150379,142998,144503,152344,160564,169366,167889,164643,156153,143882,135886,139080,151327,163206,170703,168221,160804,151729,143972,138460,140103,150190,161683,169655,167678,163224,154956,147221,147426,155498,165981,177088,181123,178884,175359,166056,162061,167979,177622,184569,194220,185981,175188,165245,152023,146134,150930,157678,160048,168254,173955,170800,160684,152290,143726,142949,147396,157948,167683,174808,178669,173293,163004,153669,144926,141834,145612,153939,164729,178207,174232,164214,156014,145118,148031,153933,164160,173901,178573,173914,165824,157189,147291,150736,158716,164776,175483,174423,166723,155288,147443,148942,155679,166243,172668,175671,173006,165550,156258,145159,147298,155167,168243,176984,175268,173064,163237,156999,150088,146444,149730,160891,169708,177971,180063,175019,165603,158538,154220,150913,153101,162279,172846,182647,183116,176669,167448,160228,149444,148723,155259,167765,173279,181604,186263,179831,171744,167046,156803,150455,155812,166395,174839,183041,184184,179095,172728,165674,158993,157891,160974,168014,173937,180489,184668,182289,175629,158411,154961,158501,167678,179802,184218,184775,179233,168803,158954,151496,149586,152474,163015,174291,180518,180315,176710,168973,156116,149588,148936,151369,164893,173264,176653,171896,153776,147224,144088,147063,163945,173189,175192,170986,155870,145719,141856,145622,166694,173242,176171,170796,152161,144363,142339,147068,166997,173236,175491,173004,153753,145467,142274,148718,161943,170553,174131,174992,172411,155484,146740,144521,145258,155649,165347,173966,174781,170638,166004,156967,145314,140949,145101,155993,167645,175097,175562,169856,160389,152121,145174,142641,146853,156569,165239,174478,176938,162015,151568,145268,145164,150140,157190,165954,176130,178902,172244,159930,149364,142532,143244,157159,168358,176551,174234,161349,152619,145706,144838,156936,169333,174493,173216,164298,154275,144859,144244,152636,160181,166699,173396,176140,173103,165066,154553,146039,143336,147704,159798,168592,174581,176598,172224,164952,155009,147719,151173,159146,167418,171413,172565,163633,156024,147393,149603,158831,167300,174734,169818,161147,151367,143789,150046,158463,166437,173838,167888,157234,147731,142098,147444,158254,166370,172423,168851,159935,151861,143283,141104,148618,156308,167739,174505,170319,162716,155223,150394,151713,157786,165341,173641,179734,180022,173156,165508,160862,162113,168614,177600,186971,190225,188131,182479,170364,153659,146421,144202,149625,157370,165544,173284,167876,159923,149419,144309,148898,157078,168213,175052,168476,160256,152440,143794,148233,159644,168544,176633,174063,164456,153099,142663,148263,158813,169718,176557,171416,162803,155438,150098,155354,155674,167506,179180,179306,172856,163275,154012,145248,144053,149404,160453,175797,176024,170928,162608,146241,146568,152761,160408,170839,179343,179738,174718,165389,151905,151303,155631,162801,178702,178900,172733,163567,149552,149177,156449,164490,172135,182369,187479,184024,170811,160294,155874,151210,155258,163824,182968,184244,181151,173724,158401,157979,161876,167737,183383,183961,179137,172974,163596,154974,155153,162217,169417,178577,185993,185273,180703,171986,161826,151863,154726,161241,168786,179864,184016,184683,177782,156481,150937,151138,158329,164595,171009,177261,181191,175234,153233,147169,146082,151051,167092,175767,177018,172648,154364,145632,143894,148839,159742,168318,173213,175023,170212,151755,144153,144519,149293,166161,171721,172119,165679,152446,146641,145111,150894,157946,167321,174648,176179,169687,161876,155031,144589,144738,151466,156036,168468,177216,175739,168523,160274,154432,147018,145096,151296,159715,168590,174711,174964,170496,160199,151080,145290,144364,150168,156458,167716,176206,176534,170713,159799,150925,144373,145194,152259,156333,166768,175163,174600,169803,160421,152598,146097,144016,160732,169138,176788,176458,162148,152055,144499,143321,160921,167289,170220,170669,166145,160268,151761,144636,144329,150692,160126,167692,173568,170640,161594,150208,143975,150419,161994,171234,175879,171858,161802,150306,142377,149528,160264,173244,179149,174546,165863,158360,149290,143757,150822,160383,171864,180587,172624,164309,151919,144486,149293,157344,167131,173978,176404,167456,155666,148963,144404,147404,157984,170286,174120,164653,156369,148580,141426,142836,152936,159300,169125,175461,172897,164058,154635,146671,143354,142929,145916,153920,164943,173406,174507,166859,156554,146355,145851,149478,152174,162200,170584,177388,176714,172042,162094,153681,148621,149176,164121,176159,185251,192741,185740,174841,164871,153823,155748,162893,170303,172893,167235,158871,148670,142349,148396,158385,168946,174498,170429,161229,151713,139123,146143,154314,164006,172504,173319,167751,158958,150883,145656,138997,143833,156254,169766,172987,170148,163691,156813,139191,142067,149873,161237,168898,173177,170810,162184,157861,143883,144263,151667,163039,178263,174401,166003,155096,144307,148836,153428,159469,170096,173534,167732,159188,141487,140658,148329,158826,171648,174586,166516,157056,146164,147853,152567,159729,171778,180026,177224,170307,161225,153648,146331,146826,153181,160136,171620,179635,180999,172373,164003,158251,155082,155355,160941,167179,173239,175811,178421,173874,165965,154868,151319,151426,159370,171193,178501,182531,182021,175334,164721,155678,150831,152139,157717,178100,180536,178039,171768,155416,149054,149593,156509,171871,176764,175604,169436,150377,142479,144686,155610,171659,177666,173154,164193,144829,138974,140115,147225,155758,165372,172028,171096,163039,153564,145624,142934,143424,147271,152986,164598,172009,169914,161205,152025,143898,141203,141924,159866,166648,171396,169961,163053,155814,146408,142154,143620,159118,166329,168309,167111,161088,154923,146931,141351,143978,157006,167561,172440,168569,158010,141580,134873,138778,157241,162758,168505,171167,157058,148028,142227,142399,157881,165174,168479,168151,162171,156092,148248,141383,139310,147681,158258,166415,170221,170518,162092,150896,145642,142456,150862,159863,166723,170014,163274,155280,147263,140346,141701,152171,160616,168431,169379,162813,155576,145585,140444,149029,157849,164205,169166,162049,151311,145096,140599,139475,146884,157977,168164,171703,169078,162588,153599,140188,135983,150665,155626,167115,171494,171786,167502,155140,145141,141828,144302,151591,156504,166145,170657,168041,158449,149031,143379,144258,148636,157328,165596,170502,169364,162976,151883,140275,139169,142810,149012,157808,166000,167599,163288,157870,149139,138519,133135,136371,147452,158386,167570,172080,162390,151601,138583,139631,148665,157766,164718,166675,165351,155526,145936,141263,145699,151718,154735,164816,171385,163326,154163,141295,143903,151505,159835,169638,178466,181016,177432,171268,161726,157468,163039,168464,174751,181512,175132,162455,151616,139335,140783,146688,155520,164358,169086,168436,158371,146740,138466,137714,143434,156144,165264,167503,163983,156436,148629,140731,144904,151669,158776,169437,166936,157641,148354,139755,142503,146807,152821,168869,168964,160055,149137,140439,142767,150559,160226,168601,169848,160453,150169,136817,136003,142814,149886,157211,164551,168426,168651,158308,148546,141491,140201,144479,149356,155391,166028,170459,168171,160684,150211,144159,141469,143904,151621,162001,168779,169874,168017,160985,154318,147859,141361,143214,151295,170261,175596,174198,164929,155266,147726,146868,145269,153929,172091,173706,173349,166793,157055,147242,148801,151596,157371,171983,175925,174179,167387,148339,145414,149211,155628,163651,175043,179481,177299,169966,158636,145517,145556,147066,153996,165464,173521,175291,174017,153322,145594,141244,144468,151333,161711,171161,170686,166124,148487,141674,139559,139089,143544,152719,165064,171024,166094,149970,140010,136480,136814,144819,155490,162058,165650,165305,149059,139514,136866,140396,148964,157084,164817,168055,165449,143856,138059,135818,136781,155993,164286,166548,165345,159201,149373,140661,137064,138004,144939,152811,162520,167623,165519,156149,144775,138026,135532,138832,146366,154989,162749,168530,164103,154106,146321,138508,134058,140223,147859,156011,165041,167111,155666,144399,138011,133806,149184,158130,167354,169807,153443,144404,137341,136272,146319,155673,162288,169864,167424,158032,144773,136623,132304,146378,155656,165600,168459,153408,145423,138248,134599,137420,142833,152622,164288,167286,162112,151830,142579,134854,135051,138396,148319,155799,163276,158706,151466,143979,137261,136764,144791,155389,166159,164190,154861,144309,133118,130869,136210,146330,154812,160648,166310,162765,154269,146245,139341,135439,137892,147310,158142,163688,163364,160862,153177,144279,136044,133716,135815,142833,151329,162893,165116,159524,150464,143620,135026,134430,143130,150688,160846,164974,162811,152014,139738,129984,128103,133509,142961,153219,159096,162428,160367,152522,142543,127798,133973,143921,150712,158361,161522,160793,150454,138208,125418,134131,141828,151267,160194,163772,160771,153709,143848,129713,134541,146948,159649,172972,174201,169907,162001,149487,153375,160656,168071,172071,172019,166686,153943,140234,128843,132250,140056,150663,162457,159616,149893,140435,132556,127984,129561,139116,151022,160898,163101,160248,149571,141648,133342,130784,132894,141694,152776,160871,162831,160556,147991,135946,129184,132571,135001,140532,151088,163031,161059,159324,149875,135744,127310,127423,135282,144139,152975,161397,165838,161713,150196,135015,126823,127416,131535,141723,153144,159998,162149,155631,145267,135058,129039,132084,144271,156480,162967,165293,162843,152288,132141,130937,135424,145963,155636,162311,161803,157746,151666,143277,133662,130437,135760,155781,162264,163971,157383,144481,137150,136454,139536,157763,166162,166915,165406,144570,137697,137517,143616,156923,165444,167615,162653,146153,137728,136108,141069,163619,169250,168338,163496,148797,140233,135656,138753,155818,163773,164879,160889,141323,134258,133220,136160,147579,156046,160569,158884,151894,142479,132093,129015,132146,141389,152469,161864,162784,153966,142598,135016,127141,125580,130376,140828,152213,158764,159773,154443,141219,131381,122529,122597,128061,138649,150844,157009,156377,152076,143568,137509,131096,126079,129326,138549,148800,154791,156596,142081,133715,127766,126134,138655,149077,157910,157652,143380,134478,126648,125926,138601,147856,152817,153021,146281,141068,131167,126439,128746,137658,147986,154697,155749,149434,141523,132824,125777,127199,131116,137903,146891,153264,150061,142614,134867,129147,128309,141572,145694,152126,147686,143776,135801,124451,123881,129826,139430,149416,160688,151723,140657,133406,128901,127159,133363,144226,152344,149113,141581,136509,131557,130968,135960,148095,153026,149382,141413,132613,128960,129879,137911,148234,155224,156049,150761,144739,138146,132094,132479,137542,145831,152158,155427,157142,151729,144323,137163,133668,131849,135422,140913,144529,149414,152273,151462,143807,138906,132691,135086,142270,151270,156861,149531,141115,135501,131724,128771,133851,141293,146889,159777,155021,145079,137029,133388,140308,142691,147211,156001,145914,142118,136512,132063,133759,138449,146743,154317,158939,156012,150774,146648,145457,143702,148310,155743,162950,172549,173475,170921,168205,162348,157398,160869,164339,162219,159589,160043,156574,148080,138727,138910,145132,151255,160203,166571,164059,154619,147925,145502,144983,148147,157422,166557,166328,164356,160758,151322,151561,154808,162864,167572,169052,172299,168719,162594,155114,157632,162033,164970,173412,170819,169406,166712,157714,155112,160561,167343,172353,174021,172574,171804,166831,162105,158534,161339,166553,169771,171972,173010,171740,169769,165787,163091,161161,165073,170498,174462,176268,176904,177231,170774,161113,159127,162399,174556,180083,179828,177353,167375,164159,165080,169217,177885,182816,184083,180296,174110,167840,165858,173138,187087,188161,183011,176607,173595,171886,170517,172404,184618,190821,187301,184106,179724,173990,171799,172384,174934,180765,184104,185041,185286,183026,178941,174079,169750,169753,168645,174125,181804,185956,184861,178544,175111,169294,161233,163367,169283,175497,178524,177936,179572,178213,172528,165518,159816,158890,163632,170616,175924,176983,177008,174608,171778,163734,156349,155123,169378,171784,174178,177871,174423,166538,163938,164154,163269,168869,174688,178239,176327,170339,167863,163460,162039,167526,170904,174654,177301,175955,174344,172948,168651,162887,165419,167603,171917,176490,178596,175688,170286,164794,163746,168235,173649,178343,177142,175756,172799,168681,163748,166946,171461,177352,179641,176303,169907,163774,160803,165438,169883,176054,177509,170271,167545,164773,164088,167689,172064,177483,181482,171874,170376,165831,161996,166855,174354,178092,177503,176812,175147,173127,166199,159756,161199,169751,172918,177353,180158,178796,174647,168349,164423,163544,167886,171833,177456,178890,176173,173811,170987,166684,160983,160178,166577,172573,180240,181405,178377,172353,164593,157583,154808,156763,158018,162968,170926,174373,168649,164207,159028,153636,157221,163010,170414,173804,173981,167044,160921,155674,151576,157271,163195,169343,171751,158376,150844,148692,149254,149779,151798,153984,156491,160206,161549,162894,160836,151192,147273,150166,153167,160539,168598,170901,165144,157457,146126,134653,130544,131224,132892,136311,142892,147024,146847,142936,135488,126385,122338,122588,126813,134993,141736,145426,147320,141288,132544,123241,117948,119378,127626,136199,143310,144263,145096,140329,131273,122024,121619,127113,135984,145622,143773,136974,126624,116695,116318,125208,133275,138038,143198,143820,137571,131333,124262,118202,118109,127966,136104,140862,142950,141950,134884,126864,125689,122989,122188,126541,133889,139054,143390,145432,144091,123805,120078,118818,123041,137966,144436,144974,141564,128484,122666,120796,129056,134917,142622,145879,145787,140809,128310,122727,124211,132158,146974,149438,147704,140703,127609,122039,123848,129061,138750,148285,154404,153978,144854,137481,131371,125405,124001,131066,139019,149946,156124,150702,143451,137301,130111,126443,126397,136814,143254,149138,148733,134723,123103,119174,117763,122376,128466,140592,144983,144648,129229,121647,117006,116249,122818,131522,141392,145152,141146,126109,117931,111965,111801,120113,128073,137241,144482,140437,134948,126128,116596,112519,112369,126091,138260,141264,139814,128342,119751,116515,118279,123767,129444,137363,141361,142764,135425,125576,117792,115304,113779,117616,128181,138583,142223,134751,128969,120919,112533,120989,125746,135006,142198,134165,126378,118886,112799,122537,130521,135404,139072,129842,122848,116221,115826,116786,122551,130399,136933,139786,132629,124975,115928,113414,120450,127066,136139,141826,133236,125140,116959,113514,117110,122508,128516,135176,140208,140296,132026,124096,114814,108502,110885,120271,133312,144501,142914,136765,131029,126784,118555,113004,113127,120602,128313,136108,139747,141014,135617,126561,115381,112839,113969,118103,127699,136926,142893,142305,133820,125019,117364,111992,113876,123781,129316,136794,140520,136658,129917,123271,116951,112899,119553,129982,137806,138429,132466,125400,116455,110686,110233,120066,125874,130558,133889,130991,123879,115089,113168,115018,120928,127893,137779,140363,137749,129153,122715,108668,111739,121561,129652,136793,142487,141974,137788,128363,111278,115634,128241,141551,155483,156068,151366,144414,138060,136328,135353,142374,141731,137659,132826,124752,115912,117709,121569,126773,141791,137464,130900,124456,116750,114348,118308,126761,139071,137603,132413,124852,115842,115739,120819,127815,135037,138998,138280,134389,126739,116839,111246,115120,121231,130495,138146,139928,141041,135581,130634,123263,117846,117372,125093,140854,142893,144152,136211,125323,115964,114581,120723,128738,132728,139393,141238,139892,135464,121131,116484,119938,128874,137656,144159,146013,138609,122509,120310,122519,127818,144093,145528,143469,138314,126930,123826,123667,129584,140368,147709,148214,143075,138835,136919,133993,129129,129199,137648,144001,148907,151080,147921,136943,130843,130035,131746,136811,144167,152437,155213,154082,139723,133211,131299,133578,137264,146153,155339,157533,156004,135504,131512,129223,130213,136541,141995,148938,152122,149761,136817,129193,127307,127367,136155,145867,153326,149634,132884,124997,125049,127605,138100,143458,146591,143928,128923,124367,121421,121275,127643,134570,143056,147723,141954,132364,126384,122065,120301,121656,127546,134656,144631,147485,143842,135002,125715,118170,120181,124734,128684,134489,140106,145144,135521,129454,124099,121527,127501,138835,145514,147261,135822,126999,121821,122143,127946,134663,139687,142900,141430,135753,126972,118418,116711,126351,135340,143733,144900,131838,123487,118177,113697,123504,132426,140831,144306,142475,134769,127437,120017,115789,118095,127067,134713,141839,137737,128239,120261,114983,115213,118056,126781,136070,142471,141479,132386,125593,119829,118506,128027,137431,141944,140093,132525,124936,120941,121580,123160,129345,134939,141081,142089,137173,128781,118918,119969,126713,134778,142419,143765,143716,137178,126645,119654,121771,127814,135679,144273,142277,135824,125340,117658,117946,120430,129986,137591,143569,144121,138656,133551,124946,120339,115331,116362,124633,131006,137475,142478,141391,132849,124326,117021,121380,126889,131761,139578,140543,141477,136811,126641,116964,119801,126539,137171,145688,143904,136493,128867,122635,124393,130178,140416,151653,155530,154453,151066,145383,136584,139833,146799,151674,155122,150792,139845,128098,117759,121144,128594,135146,139534,142078,138504,130900,125926,122871,120713,125056,131918,136569,143389,145501,140863,135197,128436,119698,115988,120416,129204,138794,144006,145909,142223,133221,127872,120762,117253,120223,128103,134933,140951,142112,135936,129581,124885,118877,116865,118899,126911,134328,143464,145633,141920,133751,120345,117209,120006,129374,137047,142284,144959,141114,133115,121483,119753,121783,130945,145259,147111,145069,135028,125091,118104,115403,121583,128973,136940,144811,145796,143394,137848,130623,122808,119109,121363,143298,149971,149630,144593,128180,121811,123299,127340,140764,149074,149989,148131,133465,127622,125025,126831,146718,150443,150076,147614,135383,128404,122576,125099,145934,151536,151908,148573,132976,124089,122556,129038,139643,148583,150304,146331,126276,116346,114062,119546,129620,138099,144668,147036,143681,135176,124071,116460,113844,119078,126772,133117,140005,145816,131379,120887,114311,113804,118443,123192,132763,141049,144054,140469,132093,121034,113021,111963,117619,123889,131175,139368,140172,129556,122317,116081,113662,123492,131420,140077,141853,129328,121326,114726,111559,124659,134028,141763,142551,132508,121194,111028,111716,119666,121819,131772,139979,139645,137141,129844,123083,115828,113430,118903,126764,132139,138839,135923,131317,122292,115391,114364,117904,124379,136251,142171,142658,136894,128277,122158,117019,114575,118943,125693,134889,141426,133841,125090,118498,115182,114751,125697,134078,141161,144129,140419,132063,120241,112546,115253,125579,132258,137085,138637,130048,122846,112993,114946,123988,132899,141074,142520,136082,129504,121828,115436,114171,118834,125141,131300,137238,140319,138089,131541,124578,116821,112087,114856,124191,133488,139894,140607,136156,130113,122020,113726,118791,127124,135186,142636,139094,131434,123316,110758,113677,121704,131494,139164,142159,137001,126342,117963,108697,114278,124875,132351,138879,133062,124477,115576,110679,116686,124103,132443,141110,135081,127424,118696,105496,110819,118606,129481,138573,140963,140501,132468,122937,117515,117194,122190,128629,142256,144576,145045,140793,131828,132211,137306,146479,154722,156279,155547,148074,134584,115973,112218,112406,121095,138109,138701,137776,129229,117818,111156,110046,114101,122792,133530,140393,140323,134956,126438,117746,111326,110086,112228,121088,132314,138411,138800,134824,127522,112678,112188,116527,124190,143568,146577,142849,133294,122225,112576,111159,117253,124140,133737,142073,142636,139388,116267,114226,115087,115927,133906,141610,144250,137666,119839,111867,110460,118583,135750,144405,147176,139856,119908,114825,116231,121408,137953,144784,144431,139055,121349,116069,116121,118784,140461,147104,148221,141631,128417,119223,115273,119264,140342,147539,150423,146501,129804,121549,119792,123628,131424,142981,147832,149376,144918,136095,127437,122630,128403,131067,133059,143268,150924,150786,144911,137121,128153,122211,123041,129134,134547,144773,149208,146006,136204,129369,123915,119409,118275,122863,130373,137211,144166,145067,137533,128761,120438,113462,116220,121011,124759,134111,141296,140996,129661,121720,113738,112252,128574,134633,138765,138455,126551,118537,110891,112061,121748,130011,137675,143069,140286,135873,126383,114439,107515,112128,119508,129808,139064,140930,132968,126413,119424,113419,117658,127374,136339,139711,137096,129486,120045,113902,113124,123394,136670,143952,142410,139579,130859,116059,108592,117034,129709,138911,141213,140220,136696,128064,119011,113114,120650,127953,136595,140122,137713,127724,117440,111539,120379,127139,134809,142806,145219,136084,124154,117616,117518,119017,117372,125152,134083,139934,140083,133650,126031,119778,115613,116593,121003,126886,133094,139458,139866,133576,125566,117092,112054,113276,120666,127313,134675,140176,141779,135775,126881,118657,110854,111394,120814,128673,134331,139054,139306,134741,128979,118396,115931,122013,126443,133044,139789,142789,135146,129703,124360,116271,117620,125296,131871,138413,144717,135963,127870,122014,115713,121571,130690,138404,144251,147307,140912,128588,119231,116086,117178,122734,128259,140787,142086,136169,127376,113004,113726,120953,130979,137739,144774,144297,136736,127146,113101,112780,118571,127568,138296,143161,141434,136170,128243,113239,117704,125093,130505,137082,142674,144854,136661,127919,115363,117897,127243,131588,145405,147919,143937,134350,126205,128899,136944,147046,159228,160736,156518,151514,143987,135096,128162,129267,132777,138849,144751,143710,135133,128823,120606,116439,119792,125108,131456,139378,143829,142608,138422,133306,125584,119031,117239,121669,137785,142318,142220,137221,128204,119926,117776,119313,125260,140901,145403,147438,141456,121207,117365,118686,122504,141773,143818,145456,140291,122324,117140,118188,124939,141888,147175,146479,140260,121217,117413,119385,125120,133462,143161,146297,145316,142069,133138,125251,121150,121213,129422,136053,144821,147609,147216,143186,133387,124877,119388,119762,127453,135183,141441,147384,148508,143144,137126,128156,126063,125194,140200,148726,153804,154784,138146,131066,127394,129512,142561,150941,150768,149544,146848,143253,134444,129023,126586,132498,142601,152126,157338,156071,139227,134478,128668,128979,142793,151991,155789,153997,146836,137365,128589,124998,125068,139984,148395,152841,142103,133674,126193,120533,121264,126688,136966,145515,149044,140896,131939,122338,118894,126719,133647,138947,142939,139128,131916,124461,118630,122185,131566,140631,145957,145517,141713,133079,121853,118158,125135,132586,143128,148502,137862,130346,121660,118004,126250,132473,139776,142827,143206,139839,133426,123206,118041,120160,122524,129722,142181,148041,145476,140053,133979,125334,118329,117234,127855,137309,144794,148285,143194,133816,130367,130937,123379,122373,128014,134734,142956,147647,145999,137259,128576,121236,118925,119434,126408,135728,144470,144904,145815,141882,134003,123281,119351,126634,135563,142623,145266,136576,126299,122049,121269,129631,136407,145709,145309,138757,129966,120799,119878,127129,134293,142255,144638,142101,137995,131250,125319,118064,119101,129616,138893,147694,147328,141643,135310,126884,121163,120915,127268,135619,148374,147537,140698,133221,118356,120922,128469,136756,144668,145968,144388,138318,130821,119675,117443,124781,136158,149693,144702,137146,128246,117848,120343,126623,134679,145191,141124,136077,130521,115416,117303,127364,134237,147599,145203,137843,128544,118691,117497,120016,125296,131169,142671,149131,146364,140252,124273,121538,125438,134756,142861,151916,153741,152724,149634,145235,137824,136499,141949,146656,153338,159091,160468,158097,146946,123054,117036,117384,124937,142076,144359,142386,136913,120437,117569,119820,129204,138028,144343,149800,146821,136446,119156,118948,120283,124443,142556,145759,142981,136284,123461,122014,124284,129374,137372,143893,149279,146937,136976,130676,121943,120626,121763,134559,144840,149094,146440,131009,123518,120336,126178,137008,139740,145702,143294,129442,123309,121698,122021,133937,141851,147349,149871,133630,125041,121878,123626,137152,147038,152144,151834,131561,123115,120039,123241,142013,149959,152054,148853,137639,130107,124981,128581,138225,143061,148756,155156,152808,142775,135885,129075,124958,127358,136217,147613,155543,156099,152863,145880,140092,131965,127592,129620,137913,145239,153365,157730,155834,149884,140108,130636,125894,136884,143251,147272,152236,142949,135897,125913,121113,122558,129168,138034,145536,149319,138859,126892,123834,121290,126818,134739,142916,148029,134819,125699,122299,116107,124074,132674,140360,145078,137098,128265,120816,118579,118301,125174,133286,141635,145881,143485,133830,124584,117209,121496,127654,132116,140013,141546,141024,135416,126538,120098,119938,126366,132188,140644,142989,133446,122643,110337,114698,128101,141099,143703,143772,143336,135766,125418,118596,119294,127089,134362,144233,144239,137604,129209,121935,118791,126326,131773,137741,144376,136115,125772,115886,114377,120038,129988,139416,145620,144921,132744,122434,115683,113285,116760,124763,133403,143069,143171,138295,133093,126911,120099,114922,116672,124764,131721,142618,138749,133139,124555,116181,112660,114189,121215,129197,143483,141973,135202,124968,114040,114453,126215,135336,144850,142333,134892,125815,117556,115749,117199,124859,133063,143757,140966,135426,127359,113913,116763,125720,135324,145129,141513,131842,122943,116909,112811,113169,121446,131719,140494,139516,135531,131785,122327,118596,115494,116950,122808,127534,137769,141790,140479,132661,121546,116289,112451,117508,123358,128970,138119,141261,137188,131204,124378,114330,109448,111622,121885,132604,143431,148622,145126,135804,126839,119158,114856,117688,128871,144641,152168,153428,149575,139649,134058,133186,135816,143529,154589,152490,147503,137957,115390,109736,112625,122214,130616,141095,142534,138529,131670,123778,113444,112339,117614,133417,144201,151378,144749,119205,113071,111827,117216,134456,138692,136512,139373,134471,124206,111444,109090,112474,132485,140147,144595,140640,123314,117137,115176,116850,133581,141543,144151,141396,127658,114231,111332,117589,132864,139622,142462,140758,124812,118908,113034,112893,133055,140800,144533,141132,133577,124013,114322,113059,118833,127709,135043,142293,144436,143778,134784,125354,116593,114349,119803,130386,137392,146885,149948,146286,137319,129479,120813,119391,126107,133911,141385,150053,149333,143923,137823,128621,119914,117976,132165,140005,147666,152834,143223,130634,123387,124501,131403,141901,151883,153402,146576,138362,129518,120788,120768,131134,139297,145879,147233,138061,128238,121011,116430,117869,125329,133981,142911,143834,139019,132093,124296,114573,113659,124786,133000,143266,144154,132092,121471,113008,113289,122859,130968,138803,135931,129314,122983,113649,114754,122992,132949,141009,143583,138068,131514,122118,114108,115256,124346,133251,139459,139349,131841,122731,113697,111304,119159,128205,135264,141386,136501,129413,121644,114995,114846,121386,132738,141361,144581,139463,131259,121996,114545,114283,115688,122956,131424,139559,143808,138761,130174,120723,114260,113413,117538,124703,132632,139897,141743,139928,134074,126391,111624,116674,124284,132261,142028,142396,136072,129030,122147,110338,114433,123930,133309,141913,138703,130615,123692,114351,118316,126649,133968,144079,140771,131043,123657,110074,115654,126491,136072,140529,138457,129836,120510,114616,112802,117692,126009,133134,139521,140966,137939,133495,125282,118914,116564,117788,126570,136428,143291,143808,140148,131450,120539,115886,115071,120220,125534,134011,142943,146497,141957,132430,123867,115049,115060,119868,127580,134131,141139,144541,140959,132942,115752,114826,116971,124958,141964,146174,137754,129075,112176,112180,118147,126229,141408,140383,134953,125444,114997,115438,119104,124331,134140,141634,142781,137210,128131,119876,113761,112568,117189,137012,147171,146835,140801,127782,117958,117568,124534,146721,156867,163342,160344,153294,143487,136677,133865,134761,143219,147128,147939,141458,124515,117645,115173,118447,133224,141058,144883,142818,125321,115307,110104,115859,127812,137998,144476,145299,139809,121803,114414,113707,117097,125820,135792,142805,144614,142258,133150,124098,117616,117408,121809,129817,136394,143249,145988,130359,121090,115694,112857,118936,127816,133356,141863,144049,141811,135141,124486,117651,115870,120159,126224,139427,145159,146002,142149,134384,126958,121451,117299,121776,128087,137811,145779,145775,132877,125945,118134,118236,128611,138464,146031,147032,133613,125798,121346,119839,132179,139418,149368,151614,139027,130419,126054,123081,124418,132186,142177,152115,154091,149381,139040,130992,125105,124346,132727,142930,151176,152651,141999,132118,124920,130621,139728,148134,153646,149219,139024,127109,121408,125532,133669,142733,148313,144959,134101,122533,116326,120463,127734,134808,142873,140521,132754,125971,116664,119246,124458,132518,140463,138811,130083,120474,115154,117705,121808,128871,134885,140318,139764,135194,128185,120424,114424,111934,116524,126013,134568,142086,135857,128826,119946,114798,112115,115252,125230,135429,144156,137039,128304,121376,116084,112746,118653,127056,134109,140273,138589,135077,129603,117954,115033,116689,124157,134092,143717,137486,128675,120251,115567,119546,128784,133890,137684,133941,125794,119843,111974,116663,125678,134915,143756,139725,129988,119621,112676,111033,115673,126526,137826,142692,143771,137382,127633,111379,110312,115618,125284,142064,143734,137051,126517,112023,112239,118325,126373,141304,142781,136608,128834,113252,110719,113126,123367,139285,141151,135092,128293,118114,111738,112714,118368,127839,134429,141161,143133,136575,126018,112113,113609,119652,126444,137639,143978,141762,133036,113341,113804,119628,126431,134709,140561,141828,136339,126127,120429,116806,117606,120704,125680,136109,144223,144711,137213,131063,123309,115665,113756,119361,132824,138814,141127,135218,124497,114194,112319,113372,117883,132919,137821,138946,135443,127349,119133,113608,110960,116149,133032,141213,141619,136471,128955,120935,118481,111328,115938,132337,141009,142883,139259,119712,113404,114731,119081,138253,145733,146463,141926,136764,131671,130036,133141,137689,143631,153256,162749,164440,154831,141588,128685,121209,119783,121744,127294,136344,140391,139544,135811,128434,121147,113004,113440,119771,127678,136393,142814,143318,137752,130298,118941,112928,114729,122848,128025,135864,142124,141339,135832,126957,117025,111188,114155,120419,128093,136181,139158,140328,128618,120109,115336,112875,128841,138201,142712,141729,130195,120971,115676,116170,122564,129296,139336,145070,146235,140253,130973,123991,116528,123377,129461,137804,145262,140111,132708,122522,115277,126174,134904,140003,144871,148167,140176,133814,125086,118778,126962,136296,144087,146039,144037,137306,125933,119016,125100,134483,145524,151185,145333,137831,129646,123416,127002,137551,150405,155497,147676,137521,127931,124320,131099,139707,148511,154721,155885,149362,139230,130576,127036,120975,125666,138933,148108,154681,154719,144916,136098,127226,121035,120622,126212,130733,138385,147901,143537,134750,122054,117463,118746,123345,131459,140216,144131,143309,137426,128712,118524,112855,112355,119280,128189,137689,145828,138986,128594,119084,113680,120709,129668,138643,143938,137659,130161,118358,114411,114415,120919,131189,140525,140846,133988,125386,119061,115900,115758,122276,131004,139483,144208,141938,136579,128620,116203,116676,122798,132691,143724,144906,140030,128764,118033,116844,121770,130091,141209,145053,143830,136288,128154,114521,116456,119742,127961,142890,143257,139474,132736,115821,114064,120144,133193,143683,146373,139658,129051,111230,113194,121652,128963,144041,143437,134669,128066,111634,114052,119634,127148,137944,145283,146072,142406,130763,117414,111331,112224,120574,130189,138158,143818,142048,134606,120451,113544,113211,120980,128888,138084,144117,143447,137512,128534,116866,114406,116061,123644,131364,143309,148548,145128,139286,118719,112656,113661,120829,139809,145640,144816,139243,123046,117423,115771,121399,136839,139937,138913,134378,116407,112000,110034,117401,128418,138517,142515,142444,137645,125389,112974,110803,112613,121541,127916,135957,141429,141886,126729,118249,110712,110401,116114,124861,136034,143354,141893,135728,126915,118534,115071,115262,132850,143610,146219,144909,134104,128886,127934,126823,148471,157206,163060,164019,142165,131149,124919,123331,132496,138042,142266,139972,121183,113664,110850,114193,129653,137918,145504,142150,126347,117806,111992,112668,120129,128908,136980,141351,140663,133428,125649,117418,111579,111175,119244,129081,138471,142111,140058,132968,125259,118961,114817,121329,130677,139846,145368,133636,129418,122707,113619,112966,119698,129141,139649,144701,137239,126993,121724,118448,116778,119514,128278,136666,143868,137076,129161,122737,116826,121412,129567,141217,147544,138918,127481,117679,113691,126291,135526,143767,148176,147504,141193,131913,123254,118138,118698,128391,136315,144533,148161,143397,133659,126132,119459,121514,130443,138039,146206,148968,143973,135302,128993,121906,125193,136030,150376,151726,143621,136136,129012,123730,124533,130648,139714,148531,151507,143408,132714,123531,121428,128828,136744,142394,145616,137940,128621,118625,117508,124241,133339,140406,140568,130794,124539,117528,111578,110393,118773,128363,135248,142279,139433,132429,125789,110493,112825,121562,131104,138501,142327,140786,133351,122963,111886,112489,118168,127836,139176,138277,134420,128048,110988,111133,117936,129978,139018,140651,139819,134076,124596,111559,111673,118241,129229,139970,142128,134804,126159,109736,111974,120608,127175,135548,142103,141601,134318,126881,114523,115989,122968,129662,137818,143028,139975,130503,121658,115963,112316,110503,117804,127845,138992,142022,139760,133926,125499,116873,113126,112769,116342,124188,137186,147025,144520,133949,121753,113425,108858,111826,120728,129770,137736,140288,139774,131690,126238,118029,114673,118618,123130,139131,143426,139345,130748,112462,109851,114018,122621,141548,143564,142254,131906,115000,113160,114817,119533,136536,140133,137747,128701,120188,113891,112879,112648,118541,129611,138085,138766,136968,130726,123236,115007,108882,107899,129089,136511,140101,137101,119586,114993,114418,114324,130818,136848,136978,137876,127148,123276,117469,117977,135025,145174,148983,147028,133270,129426,131908,128565,143245,151343,155028,151484,128417,117436,110752,108945,120174,131043,135491,140208,139848,124314,115099,109012,110553,118756,129433,136724,137922,135023,130086,125819,118232,114453,116568,120674,126215,135868,142298,136874,128908,122286,114915,111864,114176,119926,129087,138833,144379,140615,131815,123664,114165,108614,121454,129689,137751,140008,131042,127004,118079,111763,119400,127254,134919,140801,131675,120909,109826,108370,122629,130333,136366,142498,128724,124136,118130,113084,122250,130079,140848,143526,139887,135476,127684,118402,119328,116512,120075,130586,141766,140754,132732,127560,119173,117860,121491,133044,136696,140311,140204,136433,131636,123994,118228,117833,124316,133741,140939,146746,140214,133949,127931,121279,128453,136901,145696,148333,143254,136366,131646,123137,122052,128681,132923,138264,141093,139777,136577,130397,120453,115324,121366,128144,134676,137229,130953,122460,117729,112203,116364,123793,127408,132295,136321,134807,126329,118611,114337,113049,111765,116153,126332,136331,137056,135410,129396,121187,110939,114044,122056,124640,135018,132635,127526,122316,109968,110518,116013,124421,131745,135854,134484,129864,121653,112484,112959,115763,123215,131141,133252,133053,129237,119141,114289,115056,121939,128789,137477,135994,128229,121018,111088,111073,116470,125438,131813,137033,138301,129421,119629,112376,108361,109051,115747,134126,136759,134931,128185,112633,109473,111138,117647,134264,137203,135393,128153,118775,110250,106938,113264,125306,136356,135268,135478,129526,120484,113603,109344,111709,116883,124236,135208,137780,131999,125711,118551,112104,111921,112918,120103,135489,136389,132216,125533,115096,111990,113289,118721,131605,136715,131604,124658,119644,113051,110941,112656,116761,120427,128447,131866,131291,116399,108761,107257,112818,127284,134889,134726,131514,122028,112871,108673,109713,126790,134177,139726,137517,122466,119290,116722,117091,132747,141408,146059,147159,135129,127093,124378,127232,137303,142730,139903,136066,121411,114616,110907,112651,127950,133019,134478,133901,120890,110217,109914,113641,119408,123279,130324,136396,134830,124894,120466,113384,108113,109375,117802,125369,130011,132376,132177,122811,109109,109069,115693,118810,126233,130974,135458,137164,131083,123509,113162,109302,114136,119509,127458,133708,137634,132068,124843,117154,113870,119877,129269,137999,137036,129691,119014,109476,108221,124830,130575,133984,142034,129163,118294,116196,112867,123703,131764,140439,142195,139789,132803,123428,115405,115639,118339,122118,128060,137539,143229,139208,133366,126531,119960,119943,125546,135094,143591,142476,134763,124688,118395,121439,126128,133740,141037,141634,137823,129493,121965,119458,123453,133599,140908,143333,136016,126533,122020,118911,124132,130117,132278,134008,130428,124319,116840,116629,123198,129807,134447,131433,125671,119616,112903,109174,112183,120223,125608,130008,132188,132129,129608,122464,113413,110984,113622,117968,121596,128144,130079,130142,125261,118411,112936,112536,115895,120198,128008,135369,131016,125850,117169,105844,110646,117487,124544,133649,133275,127902,121019,110204,113393,119583,123349,132386,128496,127229,120179,109038,110643,117548,125998,135023,134589,130649,120546,110093,111839,118892,126580,132406,135078,133238,128745,122354,115664,110240,110871,117067,126583,133874,136746,133774,126051,108669,106942,111213,120096,133071,138447,137422,126255,118312,113180,109866,112235,119064,132485,134396,132040,127819,115297,109958,112508,121463,137924,137068,133742,127047,118088,109518,107672,110041,120053,134332,136159,134206,125521,107449,105330,110893,117454,128342,133558,136376,129196,120781,113223,107175,108306,117820,124908,132539,133781,131469,124792,116523,109281,108066,112342,117527,126394,133809,133431,132895,120806,112776,107642,113512,134843,139601,138699,137484,128944,122203,123511,129923,140988,149095,152400,149619,139659,128454,117856,113181,115584,126055,130221,132168,131301,118913,114509,110851,113627,125189,132904,136434,131935,124623,116722,110141,110323,115688,121856,129575,133110,130858,131511,126981,120792,112723,110873,120017,128904,136501,137107,132835,126348,118529,112330,112068,120506,130505,135228,135038,126406,118205,113002,112624,123133,124664,129754,136300,133721,127686,119370,111660,108754,123891,131414,136633,139470,128286,120641,112981,108584,121380,132746,139606,141048,134408,123323,116330,114246,124439,132886,140084,142861,139584,128933,125143,125086,121268,122040,128734,137674,143657,139833,136007,127285,120352,123054,130313,137631,142481,142827,143144,136319,126629,122663,123143,128079,136480,144771,142387,134657,126250,120269,122702,128369,133914,140624,140239,129854,123325,117950,116049,119376,126553,130804,137640,132393,124966,117958,111613,116167,123993,130825,137116,130879,123034,116014,112073,114111,116517,123256,130415,136046,138049,133643,127675,121746,114081,113293,115237,123393,131860,136241,134816,132532,127373,119544,112173,110006,114735,123614,126814,135954,136979,136208,128094,118566,114434,109553,111253,118914,129413,135451,136806,136906,128899,119887,111760,112922,119494,128204,135616,137056,133011,124383,118026,110640,116636,122651,129451,134963,131660,124261,118093,110939,115456,122630,129938,136922,137718,134454,128437,118804,113064,112396,116913,124149,133891,136743,131661,125350,112642,110207,114974,121426,128724,136471,138479,130586,124579,116709,114788,115484,119928,135694,138081,134382,129692,114630,114256,119544,123967,134799,136645,133403,125520,112217,113843,117941,124772,135900,138085,135893,126184,112374,110504,114446,118446,132419,134535,132374,123496,115119,107842,107401,114643,120915,127650,134354,136654,129913,121783,114264,111660,107788,109925,121170,129793,133077,134720,133028,127409,117368,109856,110237,112728,118747,128455,133234,133409,130181,117628,114273,112206,114885,123644,132494,140831,144056,139152,128964,125041,124383,128613,148411,149963,145309,140796,122845,114864,109923,110153,127440,133264,133553,129647,116926,112189,112615,115249,120128,124743,132332,138125,135022,123048,113389,106494,105280,113090,119264,124714,131604,133410,128369,120115,113219,110531,116780,127213,133409,134413,122407,116778,111206,109435,117910,126950,133313,134966,126024,115743,108939,108179,122441,131158,135091,134947,125614,118328,110244,111022,122797,127676,132993,137443,125744,119626,113336,110804,121089,128764,134924,136289,131949,123444,116419,111134,111368,117404,126193,134569,140559,142685,140894,131960,122274,113858,113100,126178,134740,140097,135438,130481,124263,114086,118171,128419,140298,143752,142978,132633,120585,117590,118719,121547,129765,136568,142493,137298,133156,125192,120656,116199,120843,131691,140549,136651,129750,120724,113835,111786,112559,118806,128224,135197,131199,125292,115249,108356,110429,112997,114641,123927,131596,136361,136766,126049,115514,106702,104420,107397,114526,123797,132106,128603,122047,110926,106788,109693,119339,128631,130494,126611,121277,115501,108012,105877,110403,118441,129245,132304,127508,122283,114621,103434,110490,117252,123759,130318,128691,121095,111281,108241,113635,120060,127454,129196,123938,116387,112466,104263,104236,113921,127010,133265,131429,121274,108674,100624,103566,110764,116948,131522,132856,124716,118868,115001,108016,104731,109725,116851,123876,129828,126369,114862,106331,104241,107399,114080,126134,132749,135048,129095,116677,99978,103643,107833,110108,126184,126566,125092,120238,110179,103742,106747,114358,125521,128607,122249,112523,96881,95881,99707,104663,110368,112340,108634,102248,90621,83715,85149,87143,93494,99610,112182,117883,109412,94431,85001,81719,81704,87104,95601,104766,110489,115227,114016,106421,89721,80671,86018,92228,99767,109049,115999,115398,109759,102671,93954,86232,84288,85891,94391,105487,114234,117771,115753,97874,91123,92422,92623,106234,117572,122444,117177,98274,91449,90029,96073,124128,130928,127944,122089,122534,118773,109105,106084,115055,121981,128961,129838,131700,126715,113346,96861,86118,84158,99239,110969,118438,123055,107899,98420,89561,90661,95149,100916,110271,117602,118344,107612,100268,89839,87115,94393,104298,112631,121810,123963,100986,89552,84629,81938,88788,93230,98323,105356,105823,96997,85749,79099,73489,77066,88168,100108,104048,106350,95204,81447,72656,69996,83921,95348,102224,102606,93255,84853,73895,64170,65076,69518,80578,88594,94556,98623,84912,74793,67661,63260,66928,75058,85954,92461,93645,88357,80778,73379,62339,60017,65131,75676,88025,93433,92102,82205,72356,65229,61575,69249,85859,99966,90318,80081,69166,62399,66154,74952,86618,98663,95952,82924,71479,63421,58963,61717,72356,85555,94596,91444,83768,69866,62521,61170,64753,72810,81229,90035,92007,87356,77233,65675,54018,50612,57305,69858,81525,86671,89398,83819,73166,61014,52110,52516,54061,58088,73961,87731,83089,71351,62074,49727,56073,65893,78161,84326,78929,69159,56824,49629,49581,55995,63769,77106,85854,79334,69421,57159,51831,57590,63336,70530,77428,77231,66754,53825,45093,55141,63694,73371,83031,83260,78087,70928,56148,47854,47148,51938,63996,71281,78743,81894,74986,67492,57353,51685,46571,48723,57533,72312,79498,79748,75483,67776,52606,53691,53080,62115,83701,84129,77094,62908,51884,48235,46832,52271,64622,79446,82269,76639,62933,46674,44345,51573,60922,78699,82248,75931,62924,50944,43718,49288,58053,80651,84331,80291,70413,54937,38417,40029,47277,58544,73638,82732,85265,77324,50867,46465,43430,48664,73660,77501,82265,79273,68446,52738,46257,47754,54376,59569,69173,82389,85081,80173,57209,45686,44641,50235,65521,74354,77912,74982,53097,43752,39880,46153,59654,70488,74714,77058,71868,52380,43723,44868,48926,68067,72323,73920,72404,54863,46312,45081,49850,59464,68829,76706,79088,74310,64690,51248,42196,45114,64536,73151,80065,82451,74417,65985,59916,54396,53748,69339,87419,104008,104122,88337,71714,63114,63621,71938,78100,81376,79742,65328,53371,46678,49119,53043,63531,73673,81536,82513,64618,55822,50271,49339,69163,78629,79336,79857,68234,54426,47677,49922,59912,69946,76281,80071,82559,77437,71378,60234,50659,49870,55836,66929,80503,84705,81559,69730,54614,47369,52428,61745,69844,78163,84287,86901,82601,70980,57886,51996,54961,62091,72097,83199,89614,90664,83664,75108,61072,50259,54240,62308,70928,81317,86934,82022,72345,60926,54767,64583,75334,85351,90270,83318,77486,67760,59642,61224,71831,84864,91706,88861,80018,65501,57957,60457,69998,78126,88143,96823,96517,92346,83381,69631,62061,62491,70258,83302,93316,100246,94682,84078,69490,63029,69680,78251,88404,95251,89033,80212,69586,63649,63412,70594,76676,88015,91042,83684,74000,63637,57460,65002,74522,84733,90301,82106,73135,63371,55164,62358,68717,79762,90776,83078,72961,62629,52724,58079,70657,82196,92961,93048,84425,70797,58998,58811,60759,66774,72989,83106,92140,91720,87641,77033,59351,59943,67259,76728,85720,89387,90928,85924,72660,62279,57954,57038,65732,74401,92139,96124,90015,75233,58176,60497,66802,79474,95078,95338,88478,78684,60746,64769,69305,79329,97876,93329,85843,74320,57957,60824,69142,80713,96789,97139,88699,76174,68909,63779,63028,69935,79036,88040,97951,99162,91270,64596,58977,60323,69121,89808,95991,94371,86309,75894,66952,63852,64174,70659,89859,97439,96680,88236,77682,64241,58308,60718,69866,93458,101843,97178,91286,70094,63430,66344,76018,97185,101110,100138,94012,73923,67376,64687,71940,86322,96523,101324,103624,94838,70213,64776,65627,74176,84731,94041,100003,100751,93225,81322,70456,63699,63774,72750,85484,96476,101021,99759,91906,82562,69328,62223,62420,82143,97060,102037,102092,80576,68288,61756,63096,85618,97866,101078,100108,80643,69641,65393,65359,85281,96014,101070,101234,86596,73455,69159,70161,76373,88325,103899,112254,112146,100526,93699,87504,85688,107884,114324,118266,118078,108703,88906,72137,66449,68700,75533,86895,98933,107588,103879,93234,87513,75358,66084,72051,87866,99354,103236,97048,87434,75823,64688,66556,78551,89264,100835,105354,92601,85102,74431,66812,73097,85658,98077,109264,99924,86956,72098,66284,68789,80033,91364,101859,110834,100690,88146,72873,67259,72156,85926,101224,107472,101158,89413,77571,72330,71764,77766,91869,104988,111671,110206,102871,90269,78593,74578,83001,90145,100403,107753,107235,100395,89016,79855,75086,83533,94023,105518,110284,110808,105396,93964,80979,80753,86325,95440,107228,115857,104389,94630,84852,77889,86463,101269,114482,119771,111490,99018,84953,82137,90100,99276,110712,117916,108442,96492,86251,79248,78938,89658,100517,107146,111661,111729,105320,94523,81058,74654,71393,82658,94171,102864,111773,111984,99409,85631,79534,74719,75441,82531,89430,99779,106421,107264,102242,91819,69429,69364,77111,93720,109584,112191,108041,98614,90178,78695,73165,71932,81588,91241,108954,108740,96764,83138,75777,73621,73748,80684,89977,108633,105972,93719,84956,69070,73479,80891,92677,112231,105894,98295,88352,75551,74358,74870,79523,93977,109387,114731,110773,100319,86391,75073,72333,74194,82014,104626,109205,108221,99968,77318,76032,77169,83258,104387,106627,107958,104628,76631,70986,71204,80868,105859,113451,113797,101617,79126,75196,74771,84193,109169,115516,110869,102140,77494,73878,79361,88116,108943,112824,109599,101483,80994,74720,76143,84912,96809,108644,111746,111651,103846,91647,80996,77073,80749,89814,99018,109384,116851,114537,102538,91891,80789,76808,79050,87331,101091,112501,117729,116107,105835,95581,84192,79265,81094,98971,112484,119208,117009,93496,81204,74119,77945,87163,97776,108668,112262,109959,91343,81972,76663,77996,85738,94646,109048,113548,108571,90758,79300,73607,74639,85104,98828,109591,112491,108044,100086,92193,83429,76856,75251,81908,95906,110913,116378,104711,92952,78600,79352,83586,91318,102801,116036,121004,111909,103715,96812,96309,104230,115287,131391,135505,115500,101322,87020,79151,77164,85015,98413,108388,111251,104601,93968,81181,75856,90007,100466,110096,113569,109738,102823,91457,80276,75286,88772,98094,107931,113243,107052,97277,87181,81869,80620,85579,95756,108529,114891,113489,104106,93128,82534,76404,81114,88648,99853,113767,114306,105304,97001,86039,80793,88853,102890,117146,123026,120658,107647,93721,82760,79700,91867,99166,112202,119877,117614,109483,100868,88253,81981,87817,102053,115328,119859,112717,99035,85056,85292,93896,106525,120562,120390,109876,101644,90454,87761,95536,106756,116901,124088,122426,115128,106566,96498,84802,88820,100698,110635,121796,128156,128994,118986,108683,95096,98886,106139,118741,133309,130883,121521,113474,98244,100729,111109,121052,127205,132266,131139,123443,111261,98236,93383,99293,104527,113456,125706,122066,116725,108246,94138,88436,91893,100744,113109,127904,123069,112354,102512,88605,92587,102029,111113,125190,121631,112009,101850,88893,86151,91251,98613,108434,120149,126882,123579,111958,91266,87199,89854,99863,112844,119654,123692,123431,114459,91201,89359,88639,96832,109148,118106,122528,120103,110463,88720,83658,87009,100632,117284,121226,118424,107917,90323,83753,81525,94219,115178,119063,117882,108878,87687,83376,84958,94206,117735,123694,117657,106218,84358,80819,86511,98436,104635,112093,115996,114365,105658,95091,85594,79309,79894,90757,104806,115869,119346,116053,104734,92219,83553,78759,83889,105531,109960,113342,110524,104136,92288,80879,76527,80482,92008,102529,113519,118051,111584,102792,94058,80114,74974,79991,99143,108575,112296,110695,89206,79446,77022,81087,100646,109545,111773,107850,91986,80481,76336,80038,98258,108321,115393,112172,101916,91379,81861,75655,78444,88260,98151,106876,112841,110957,102205,92301,84069,79961,79376,91370,102209,111472,118981,111184,102813,92659,87192,98517,111861,122986,126293,111972,96969,81910,74983,88239,97106,107888,110599,102091,91756,79649,74816,92388,100298,108574,113996,101774,93210,82934,78006,89275,100027,109655,112121,111650,102484,91215,85343,80566,82939,89880,97653,108149,113606,111398,101908,91249,81878,80203,90009,101598,112956,119853,117426,102095,88848,80064,77292,82473,91118,101284,113544,115224,111694,103486,93013,83424,85803,95176,100599,111274,112964,103994,94477,87304,84323,93599,102014,113863,122753,106213,90991,84193,86148,95333,105416,112843,117688,109638,96886,86291,89464,95535,107060,117252,121945,120296,110053,98424,90843,89905,93193,100489,110470,122344,120912,116539,107667,93890,85984,89169,99365,110065,126804,122656,114361,104146,87470,89447,96723,105724,119702,111753,104197,96261,87044,85343,91583,100244,106086,116724,113687,105373,93998,84248,86099,94857,104489,116488,113286,104559,95373,85930,80103,83973,93358,103532,116341,113436,104353,97508,90399,82754,83728,92746,101224,111184,114790,110755,104609,97046,90671,85206,86654,96451,104733,113676,118453,114331,105191,87098,83557,86771,96810,113519,116588,114156,108362,83816,82676,86949,95942,112388,119264,117557,109303,88088,86276,89553,97192,119283,120874,113236,103634,87894,82633,87678,97458,113508,117968,116413,108327,90860,88273,89123,96496,106274,112334,114653,112451,105813,97068,90161,87087,88747,95502,106368,116595,119032,117115,109258,99255,88468,84328,88188,107692,115203,119189,116650,96242,85733,84185,89796,107458,113621,117124,116688,109570,99135,95447,90459,90576,104023,113187,118611,115686,95291,88425,85703,89261,106650,113254,115558,115818,96824,87213,85874,85192,91085,100969,110988,115100,113299,105808,92959,86792,85728,86543,93451,102711,113623,116659,106619,97134,85925,81741,96231,105585,116269,120291,110991,102938,95814,91714,101492,111316,121932,128727,121304,114771,109480,105640,107777,115227,122482,125907,126402,108117,98134,89876,85760,99762,109482,112858,114958,108624,98553,88740,85305,101170,110777,119125,120836,106704,95615,87373,87043,90048,97393,108040,115189,117643,118671,112216,100687,90045,87301,90049,99012,106728,114711,116466,114964,109186,98656,90138,89720,91466,97846,109670,120663,123662,120933,111581,99258,91758,87525,89864,99443,108877,120999,122664,118675,110388,101934,92291,91622,102948,116101,122860,121296,111407,100821,93300,89882,94606,103676,112198,123238,121388,111878,103144,95983,99643,111153,119289,124622,126602,122781,113640,106114,99684,99215,102003,107748,119889,128579,130812,129415,120155,109032,100824,106109,114611,122832,139752,135541,127083,116571,107741,110940,118578,129687,140461,138717,127051,120070,112611,108559,114204,121909,127384,138828,132208,122174,112547,102319,108033,115803,127727,135888,131558,122816,113055,99641,104424,113361,121578,130388,134969,132669,123753,113392,103746,101243,107894,116203,123573,131764,133644,129819,121557,114313,104817,98583,102717,110914,121226,130808,134545,132646,126371,115533,105763,98971,102988,115276,124145,131373,132405,127456,120650,105254,102428,106136,112494,131243,134569,130171,120544,114713,105140,100189,103662,113252,132994,134841,131215,122660,111358,104303,104206,108578,116037,128694,133963,133040,123965,111438,101506,99630,104796,113153,123088,131001,134375,130835,122226,111909,104322,101938,107386,121816,127541,131379,127639,120170,112113,101898,100261,104058,123289,133427,136941,133331,114907,106375,102196,102659,122816,131693,133635,130556,122313,111040,102328,102326,108278,123765,133266,139466,135658,110298,101581,98833,103423,124984,133028,137544,132409,122426,113488,105930,104274,107050,119624,131443,135918,133626,124766,110252,104437,103553,106994,114450,123878,131221,134713,130193,123076,113615,101644,99126,117109,123334,128689,130679,123266,114264,101737,99405,114339,124428,134943,134854,121253,113209,106725,105778,111408,119261,131322,139107,139597,125580,120938,113795,111801,132329,147964,155781,154127,143945,131731,123576,116628,121432,127358,134584,134833,123571,113680,104044,99136,106100,118676,129614,137851,133564,125548,122336,113009,105006,109388,118712,124923,135843,139853,131427,124635,114634,104873,110392,115857,124332,134937,137309,130723,121913,113719,106897,109645,117205,125579,133601,129940,121663,116140,109176,106749,115741,124256,131911,136738,134232,122696,111765,104943,104082,113834,125703,134749,132709,121386,113409,107018,110739,115383,122467,129634,135473,133831,125710,113961,105121,104131,109189,118227,128872,135629,134031,123958,115114,105584,109966,120967,129891,142064,136381,127463,117327,110154,110301,112419,121429,134086,143322,144937,135352,123419,109478,111734,123132,134436,143188,138207,131771,120541,112171,112508,115106,121901,131040,141719,141264,131089,121710,104855,109474,119137,128031,139969,136311,127790,118549,106929,101537,106252,117488,125588,133040,138684,136149,125979,115353,105743,100789,106568,116373,135455,136944,132289,120943,112510,104607,102589,107885,115443,125997,137154,141397,133187,119833,108214,102313,97957,104849,114229,123974,132392,135310,131399,119872,103417,101075,106654,117505,134799,137249,133908,122674,103479,100661,103697,113380,133754,135220,129358,118626,102246,102808,104039,114077,125802,134729,136136,125503,117894,108061,103112,103009,104946,113433,125181,132533,137434,133714,110314,103278,99238,102274,121484,130803,133854,128961,110138,102436,102466,105362,120333,127804,131877,126748,110324,101443,99540,102851,119692,130496,133847,127923,110166,101930,100118,101749,121838,127500,129909,129934,107921,101094,100396,105479,125383,130728,132996,128574,119404,107151,98929,97001,102379,113083,122189,131299,135661,130627,118569,109235,98896,95230,98851,107629,117361,128518,134358,128463,117801,107639,96541,92373,97848,107686,118547,129461,130793,126861,118073,109524,97096,91159,107244,115881,128359,131781,113791,104153,95095,91226,108979,119896,131258,133825,116678,105889,95979,98153,101851,112566,124881,131598,131181,124199,115076,109546,112264,122911,133311,144371,152539,152759,142451,126867,111580,98312,93891,97493,111341,123097,131440,125425,113830,102316,94955,98902,106075,115353,127309,125327,115699,103229,93931,92463,99166,109489,116658,124283,122806,112082,103112,95138,98688,109078,117213,126589,124269,112546,100964,92374,91101,95976,103256,114760,128096,126146,113324,98102,88361,93798,103326,116007,124039,126586,122014,110471,97954,89790,90179,96452,107273,115974,124751,126701,120622,107503,95799,88018,95288,105963,118434,125536,128108,122662,109950,99305,90401,98454,107264,120229,128397,127069,120555,110870,98143,86458,95703,107400,116776,126161,130010,123527,112933,104306,88150,96468,106864,120185,135874,130883,120129,106354,95058,100162,112263,126573,136238,136991,131632,119085,109284,101666,98363,101964,110763,120350,131864,136517,129528,115106,106591,98250,94426,103474,111671,121312,130704,128871,119578,110266,98870,89619,88071,92986,104856,120008,130191,133241,126126,109811,99528,91454,92033,97265,108949,120197,126544,126582,119953,110109,97812,87900,85351,96914,107714,118101,128563,131694,125365,112561,92415,89392,93138,104471,126123,129788,123843,114096,92727,86946,93831,107705,118778,127193,130803,122168,113686,104665,92111,88161,94581,120229,129202,129304,122899,100758,91091,88684,94706,107948,122396,129893,128367,123586,102106,94640,91130,98082,124625,130209,131704,126307,103128,91559,86408,95200,116299,127148,133102,128849,102314,92661,91213,101244,126921,136889,135791,129789,99569,93956,95129,98764,121585,138433,135948,124224,112041,101114,94063,90921,97694,111832,124919,133768,136746,132752,122737,111043,102414,97282,108805,122317,136680,139008,133249,123488,110123,101894,100707,104944,110944,117538,129003,133166,128937,121906,110623,97280,96387,101405,113991,125263,132196,131790,118683,106421,98457,97369,109628,120556,128902,131281,121376,112893,102626,94955,108465,119528,127998,131886,117304,105887,98287,96005,103644,110759,118149,125468,128639,127678,120081,107824,96404,92656,97778,109351,119362,128239,129728,119491,108853,99989,99978,113212,128787,141153,144999,135966,126814,122147,126544,130449,134558,140888,133287,118654,107574,100482,97576,109964,120126,128928,128164,120271,110066,101989,99700,109249,122528,132461,127868,118512,111011,102433,102450,111535,121491,128814,133603,130159,120844,111586,101594,98638,104118,111768,123671,132164,137300,131785,122881,110931,101880,99985,102276,111785,125630,132783,134464,131819,122484,110241,101663,106813,115986,122436,131522,134307,134256,124769,110901,100273,97618,103981,117368,129361,137827,135642,127398,117288,110069,106563,111461,122531,135918,146976,138788,127744,119279,108649,114804,124674,136838,148642,145579,136533,125937,116058,113026,118332,128534,141503,150797,153758,145878,135432,118415,117657,122379,131197,151671,150462,146891,136648,126549,118607,117401,121831,132105,152963,153884,147957,139394,115438,111765,121043,130981,151431,151130,143076,133688,112816,111897,117286,125169,143924,145179,141341,132454,119797,111534,105493,109692,121494,142873,142937,136496,125885,110782,105704,110030,121603,134074,140143,141108,136784,126467,116241,109676,105114,111145,121445,131596,139900,142971,135084,117662,106397,105671,111279,132178,140088,142932,138861,128049,116151,106646,104794,113036,132446,140173,140716,135352,116701,108281,106778,112212,132308,139708,141791,138920,127351,113311,107585,105626,110019,131284,138809,141414,138749,115251,107081,105851,109639,134368,142758,142594,133289,124290,114813,109293,108088,111099,119844,130672,141092,142617,135798,126443,119306,111354,106524,110786,120353,132165,139761,142150,136872,126664,113866,105696,106973,112849,120801,131050,136616,139278,137007,128186,117774,109168,105522,109346,118684,132670,143019,145749,138146,126786,116685,110921,111242,117756,126401,132769,137721,140780,129207,116432,107907,108824,124438,133890,143184,142212,129195,120174,110730,103342,109278,118852,132020,140534,140733,123318,114798,108298,108423,120127,131860,138074,138014,134456,124617,112642,106189,112902,120974,130903,140169,136068,122285,113100,106638,108863,119298,130638,138447,141989,138188,128619,116459,108312,114943,127502,139532,146552,145935,137804,128176,121770,129152,138695,155413,167979,155504,143028,127223,111875,110765,120845,130371,140075,137876,132190,125326,117056,107136,105726,111143,120644,131570,142038,144017,134848,123098,114320,106808,106385,110148,120346,132842,140414,144509,136570,125714,115385,109251,105588,110712,121938,133814,141846,143255,136041,125358,112903,104081,110530,121116,132721,142409,135289,126521,115123,106145,112439,122242,133666,140784,143811,136065,125244,117852,107639,112688,119771,128533,148108,141343,129308,114781,108936,107457,116929,125623,136562,140431,138985,136723,127053,116453,108360,108645,112367,120209,146068,147518,139419,127004,114156,112446,121155,132299,148968,147508,138816,129741,113698,113203,117051,127224,153108,153318,142693,129933,115114,112407,119498,128883,146285,143698,139390,132483,117809,115959,120901,128954,148699,144628,136433,128616,112107,111264,115477,125090,134784,142789,143219,135508,127003,117877,112901,110491,112280,119906,131611,140483,141193,129698,121592,114150,107963,106025,111362,120469,130684,137742,138396,132245,123883,113763,107291,102728,109201,127818,134688,137856,134608,111709,106218,107203,110561,129043,136634,141150,135589,113762,107883,105934,112905,128786,135998,139072,136373,115911,107941,105347,113564,129908,134540,136285,133252,124128,112896,105166,107653,112831,119885,129328,133599,138866,129929,117669,105333,105177,121139,128099,133453,134933,134171,122163,113696,108039,108074,118639,128400,137420,138290,123566,113791,108453,107577,120057,129116,135483,137587,133523,123514,117226,112805,109803,118860,129971,138418,135653,123214,115082,108520,104759,117856,125919,130117,132584,124156,115385,106538,103649,108271,115925,125098,131424,133095,128327,120484,111946,104674,102931,107763,116976,127171,131033,126253,119688,111815,104264,106243,119112,126984,133641,129719,120511,114046,107764,107329,118534,128004,134373,134189,131061,120841,110414,115374,122649,135282,144826,143863,136808,129352,125243,128079,131541,136196,136638,130736,123516,114826,107154,106565,114876,124494,130159,133406,130194,123938,112500,104206,103077,109024,116416,124409,132804,137038,130849,122649,110919,105321,109906,116075,124523,130743,131108,128519,122311,111869,105722,103221,110267,116771,126228,133319,134131,130029,122161,112648,106384,109425,115939,124559,131504,133724,129584,124809,118761,109614,110765,116374,122886,135027,131667,123052,114819,105256,113156,122779,127481,137968,134951,127263,114482,108006,107709,111736,121675,130713,135713,133777,131832,125341,117274,112262,110728,116136,123336,131088,139183,139248,134792,127843,113199,113163,118076,125976,138774,142261,138411,132128,117890,112938,119036,127529,141477,142666,136948,129464,116565,115880,119936,129069,144488,144534,137473,130977,116314,115746,116102,123138,137898,137806,129716,122575,115244,109808,106526,112800,119321,125829,133774,137394,130874,122227,114471,108051,104429,109359,117118,125106,131912,133185,127993,123291,111486,106086,108275,112739,118320,123344,127118,131616,129703,122614,112459,108648,107776,112986,116760,122186,128840,131055,127321,118179,111158,106557,107415,113886,123583,129707,129749,127054,114520,110639,108736,110900,123973,129362,132926,127583,115855,108868,106532,109707,127836,132586,132450,128851,122005,114101,108534,106931,110456,117119,126224,134947,135421,129630,120471,108275,103149,105098,114884,122230,132801,135894,119708,112739,106158,102902,119919,125764,130641,133164,122279,112623,105103,105164,114901,120901,128524,133493,129321,119605,113498,108331,105873,112733,123649,131112,130119,125234,118541,109667,104725,102149,111221,117931,125275,127982,122506,114853,107364,102833,101665,108724,117024,120853,127215,129543,124746,117249,106432,102319,101099,105937,114551,120471,127181,128766,122599,114741,108669,104065,103796,107503,115335,125289,133843,128051,121806,113621,109557,114913,124938,136663,143064,140277,136171,127763,117765,113152,118026,119836,125883,119734,113556,104819,98551,104383,114732,121774,126193,128011,118377,106817,101398,104369,110387,120636,128239,130270,126354,119244,108466,101258,102686,106263,108720,119456,125861,126504,122396,116650,109213,101018,99491,107381,116178,121257,128444,129048,122621,115118,109788,104101,108027,115744,125137,125498,125286,126568,119843,109716,98957,105838,117312,126525,129064,126306,116088,108177,102551,110437,118399,125146,131111,134828,131673,122266,113181,105068,108073,114649,123748,130405,127103,124520,117898,112266,112193,114341,115089,124603,134414,137160,130734,124358,117401,112198,109755,115684,122759,130447,136561,132291,126249,120911,114191,109411,114290,124531,137616,140311,135760,127471,111974,108613,115333,121109,135661,136950,130452,124529,108620,108415,112089,118688,130539,131605,129011,120349,102551,102932,106889,113168,128933,131995,127256,119173,105693,101063,103713,113014,125675,129926,129283,125499,118684,107501,104636,106460,107814,122579,126710,124840,123524,119592,105544,97734,94613,104132,114541,121508,125935,125819,123964,116204,107409,101783,96247,104841,119381,125551,125237,122203,116546,107704,102353,103522,106740,121381,125878,127686,125422,109563,102504,101326,106669,116769,126953,128373,126175,109406,102421,102689,110023,116278,123148,125302,123260,118424,107908,101848,103713,107388,111464,118384,124836,127054,120628,114551,107899,103927,103396,109838,120680,128946,128072,123323,115859,106877,102998,104736,109391,118871,125201,129491,116111,106208,101226,98034,107144,116234,121689,121592,111858,103809,98008,98804,109216,115840,120594,120278,118724,113123,104196,96341,96813,105566,111099,118779,120324,111666,104449,100378,98533,99821,106826,113966,116966,121774,120273,113593,107206,100997,98526,103324,111149,119571,124053,124798,123456,121393,114866,112139,112932,118241,128144,135258,138361,137768,124192,112920,104354,97748,97858,107579,116382,119493,120064,115303,109565,104859,98229,102099,111806,118897,120953,117516,109171,100546,97028,102812,111030,119252,120043,116124,111516,104308,95891,100032,107938,117121,120256,119979,118216,114836,106083,97409,96665,101609,108248,116211,120384,123081,121368,113826,105849,96766,99352,107338,117101,121494,118025,111114,105037,97184,99619,106765,116956,123304,117075,110918,104148,100171,104103,112399,120642,126461,120123,114206,107510,102790,104623,110387,115326,125344,121945,116811,110505,100649,105423,114621,120904,127456,129095,126204,120383,112569,107006,105273,108316,115446,124531,129731,130073,124821,118610,110672,106288,106456,112733,118369,123169,127665,131625,129189,120841,109755,104019,103220,106934,114075,123463,128638,129201,123142,114346,101889,100328,103433,109560,121254,124146,122243,111049,97043,95884,99220,110157,121656,124481,117439,111134,98500,96063,98106,105042,113780,120408,120753,116750,110889,94291,95873,100789,107153,115112,122381,123740,118836,109204,99661,91687,91893,99179,115502,122036,124154,117683,100336,94826,93731,98508,106982,114082,118091,119112,117404,104963,98275,94251,97124,113698,119129,119371,115226,101971,96401,95305,95955,115223,121359,120000,114390,103181,96066,93960,98626,106550,113468,117844,120253,115081,100928,94579,93699,99061,111096,120207,122026,116535,108807,100124,94416,94711,99859,107625,115639,120075,119905,117208,110396,101143,95603,94915,106474,116679,118967,121894,110905,102818,97570,94966,98314,107381,113718,121434,120154,107239,104465,95518,89171,101296,110095,116011,119548,106848,100367,97008,96980,97011,103634,112407,116593,119759,103908,98673,97439,93757,101850,112879,117977,118271,104527,97230,92578,92446,97136,108153,116601,121668,122049,117767,111714,102422,97216,102917,110468,116759,126591,134885,129827,125836,120578,114503,111419,111968,115487,120287,122392,120743,116499,109993,102047,95576,92798,100026,108194,113526,118611,115606,106452,98463,96238,97336,102691,109182,111909,118050,120208,116787,110036,102115,95266,97313,104791,113940,120398,115413,108529,102404,99017,102196,106131,110906,118088,122255,116484,110454,102783,95144,94457,98453,106915,117044,123085,118504,109701,100691,95890,100938,106891,116634,122661,119648,110179,102292,100366,97138,100728,105668,112561,123460,122223,114769,103944,98281,97868,102951,110378,117564,124546,120795,114366,106436,100653,105587,112281,122192,126429,126987,119782,110821,102646,108712,114844,119733,132599,127178,117139,107133,104475,103633,106082,113308,122383,131266,132840,127654,121184,112486,104423,103890,107838,115974,123278,126362,126236,123756,118495,110597,102606,98630,102402,111636,120421,124763,125613,118890,111699,102153,95038,96142,101194,105934,120351,122951,118856,111079,94761,94325,98971,103081,118461,118313,112314,105733,96566,94263,98149,102809,115705,119167,115172,108314,92348,90160,91982,100771,111927,120051,121831,115251,103698,95744,92871,91283,94726,103766,112722,117886,117384,114136,98088,92111,90541,95665,111151,116756,116723,113229,97371,90909,90614,94689,111633,117571,117051,113431,97393,91833,89408,93726,108575,113558,116653,115021,95825,90641,89904,92883,110884,115004,113171,112117,96043,88024,88052,93329,112163,115296,117461,112084,106286,98931,90148,89662,97124,102847,111310,115349,116257,112596,106305,98610,90107,88786,93244,103530,112864,117956,118258,113341,106068,95313,90464,92432,101364,109272,114793,113251,103193,95249,89989,87529,99701,108463,113141,112290,106698,101954,92434,86036,85081,98121,107326,111850,111582,99688,91801,87943,87296,90914,96308,106281,113119,114051,98217,88729,84269,85301,92060,99477,108343,115221,117039,112919,102354,93266,89752,90228,98593,109403,118574,125503,128288,125660,123090,115308,110437,108359,109254,114284,119715,121753,117200,110111,102079,92179,86953,91880,99574,106686,111394,112100,108161,102258,93704,91529,90407,97629,107119,113989,108166,104878,95115,89193,93816,102120,110829,114471,113169,111190,104744,93273,86722,94208,102818,110221,115616,112138,108616,104776,96508,90145,89569,96803,103629,111354,116231,115646,110422,104737,96066,91259,98496,104594,111460,116498,116048,110849,105534,99324,94222,95709,99924,108436,117179,113376,102701,95541,93735,98544,105758,113739,117880,113844,109356,100893,93435,98809,104377,112233,122823,116415,110351,102742,99400,103663,110688,116367,123955,120114,112534,104330,97981,95043,100591,109376,114196,121541,123202,118403,113242,106536,99749,98473,104394,111518,119364,118503,114165,106916,100211,93737,92423,94724,104023,114897,119603,119498,112584,104333,94151,88188,88623,93259,101686,108289,112083,112336,106503,98716,92936,87693,85488,90499,97023,105816,108370,108447,107407,102268,84873,84073,87180,95106,107110,109019,104823,99661,88843,83173,89518,95309,101056,105693,108089,104703,98038,88284,82971,82298,88233,102760,109139,111096,106324,98301,88773,83802,83541,87404,103328,108913,108820,103938,93513,88107,86679,88421,94606,103490,108726,108320,103486,85696,80876,81231,88724,104091,110246,109829,103218,89623,82946,81432,84397,104051,106488,104461,103313,86801,80291,80768,85666,99626,104258,105860,98533,92824,85036,80914,81773,85258,92630,102209,106266,108171,102083,92941,85643,80715,80188,94129,104851,106479,103268,100085,93698,85816,80691,78076,83133,91662,100803,105576,105423,101819,95221,85224,80806,83983,94790,100839,105528,105296,97799,88493,81604,82578,92591,99919,106528,108986,101826,95469,88692,78828,77287,91519,97686,103120,104291,93038,85071,79481,78026,81804,89213,97374,104182,104773,98133,91937,85787,80893,77524,81311,87899,97314,104354,101966,93045,82699,78588,85196,91053,98228,103080,101624,95976,88661,84024,87466,96913,107164,111823,110718,109116,104431,101153,103531,111417,121029,123476,114904,104973,89406,80628,80766,85551,94333,100936,104669,105986,101081,93496,86371,81040,81173,86993,95029,103136,107030,106635,103113,97682,89649,82021,78249,82851,92849,100236,104375,106715,100986,92604,84279,79715,81982,84243,89781,100053,105996,107606,102903,94104,87769,80378,77987,84293,92134,101759,107114,103443,93410,86433,81274,85986,93478,101011,106129,102819,97358,87176,80838,81483,85877,93791,103378,109333,104105,96113,90538,82794,86075,93045,102775,109901,104611,96538,90093,85262,82878,88343,97672,106580,112106,110031,104488,98156,92603,88117,87811,94176,101149,111916,113759,107571,99201,93010,86569,90394,95579,100282,113764,114361,110954,103549,94561,91234,92643,97616,103126,113726,115575,112467,102533,93649,88541,88393,96211,102926,109148,112136,109146,100580,89542,83786,84673,88485,92841,111378,109780,103179,95908,83152,80138,84173,93553,101857,106499,106264,100611,92435,83908,81149,80273,86453,93965,100206,105108,106388,99836,86119,84498,82736,85476,101040,107651,107333,102306,85427,81781,83682,86041,99556,106359,107342,100414,86337,80479,79453,85194,99868,104344,107524,103779,84382,78306,80251,86608,102306,105615,108306,104453,86323,82594,82870,86411,103633,112366,111555,105786,98771,87051,80318,81442,86469,94553,103717,109332,108943,105473,95392,85368,85410,84449,96199,105671,110114,108521,105291,96373,90374,87079,85334,87182,92246,100446,105794,107498,98057,90634,85879,81417,87458,95699,101619,105783,104206,103139,97860,90961,86131,86851,95081,104123,111775,111373,96568,90299,87909,87509,93039,102314,109156,111433,101698,94445,90891,92207,97325,101499,108443,113587,114639,111541,105301,97384,93163,95887,103493,113795,118377,118801,111672,106479,97265,92198,97723,103285,111260,116640,115214,111001,106905,101254,96477,98661,103007,110420,113967,112801,106446,98972,94173,97878,99958,109465,115798,113206,106250,97185,91567,100676,105028,110994,113759,111080,107728,98338,91239,94766,101924,107843,113875,113969,112453,107248,98155,93429,94178,98727,104927,111957,121963,116783,110390,103274,98583,99109,105561,114441,125399,134331,136062,133426,129209,124261,120694,115113,115443,116262,118047,121002,119849,114673,107939,101008,90986,97859,110201,114513,115474,114639,108626,98283,94125,93269,94930,102179,112138,118639,115917,111029,103113,93346,98966,107283,113679,118330,115717,108038,100016,94613,94108,98829,106746,113946,117196,118154,115750,109674,100829,96546,97345,102846,109047,116095,118767,115984,109484,102788,98784,99993,105668,117745,121077,118819,111678,100918,94199,99911,103814,108141,115671,118897,118739,115064,111057,105414,99895,98789,102209,107909,122953,122570,118154,112901,98637,103416,106304,111331,123758,121571,118938,113648,104384,102397,108612,114882,121027,124988,125576,123993,120433,110451,101309,103021,110773,115753,121708,126655,125919,122770,119572,112978,106649,103666,107403,114449,122164,125361,127621,123976,108373,101784,100358,106313,115749,117836,118338,116158,102796,97093,95423,101306,115342,119841,119695,113692,104602,100948,97526,101347,111747,116131,114121,111229,101127,96855,95030,99403,109071,114190,113783,111956,104065,98098,95299,92986,98414,104491,112104,117092,116436,104576,101109,99139,97660,100779,109026,114724,114583,110730,105848,99310,97330,95712,94181,101325,108134,111261,113117,110088,104311,97631,92591,93164,98118,105296,110841,115355,115923,111889,104839,95743,91851,91343,98373,105024,109963,113312,115819,112673,106667,100606,95213,94056,96927,100763,108446,114165,114946,105971,96350,93228,91893,94344,102411,110170,113500,113819,112350,106938,98066,93941,93941,94776,100850,109242,111998,111617,107833,101378,95950,90579,93285,101248,107273,112182,108691,103015,96693,92569,96861,101060,108612,113052,110744,103786,97273,93348,92314,93991,101059,108771,111590,110806,103008,95434,92634,94945,101627,108981,111585,109490,104846,96985,92606,92701,98567,104263,109311,112861,113596,109894,104868,97058,90252,93088,97991,102477,108975,113671,114822,111454,104326,97329,92387,90618,95408,100872,108486,112266,111612,107055,103837,94511,87743,87451,92140,99548,105723,110373,110073,105188,97795,92029,91140,93130,92918,94915,104856,112735,114163,106116,99488,92781,87011,87790,94806,101144,107481,110185,104803,99137,92080,88499,94133,100733,108093,115870,112484,104894,98059,94884,102765,110733,121949,129565,127996,126883,123119,114821,109351,109811,112694,114965,113253,107735,98834,91739,86890,88568,93659,98794,112683,112599,108326,100518,90904,91094,96275,102768,112968,116548,111917,103639,91960,91577,95319,98954,115284,112314,104994,99296,90489,87344,91481,102794,112406,114605,113896,107142,88607,90967,92348,96718,107936,114397,116196,110913,103164,96699,92021,93683,95484,99513,109269,116023,116311,112140,106989,99539,91804,90249,97045,110993,113075,112061,111406,106974,101671,98146,96341,99224,105762,110214,116373,117565,114374,109929,105650,100756,98903,103636,115573,119434,117153,114359,104369,102402,102171,102213,121289,125854,127261,121084,109491,103438,100729,104349,117353,124347,125590,121125,116483,109678,103462,105071,110076,114617,121039,124116,125879,122329,115004,110200,102625,100938,110407,116391,121710,120233,113768,108946,104487,101202,97725,101364,105341,111868,115440,116917,107559,100653,95959,93373,103778,109754,112992,114201,109065,100776,94045,93091,102452,109947,115466,115498,106561,100821,95276,93823,102263,107514,114934,116295,105739,100336,94884,93056,96306,103273,112399,115844,114913,111965,104969,97619,93821,92841,97391,102833,111484,114954,115351,111556,106056,99416,96098,96106,97817,103896,109041,114446,113071,103795,98351,95439,96149,103188,110903,115780,113178,106811,97669,95371,97735,106109,110711,112521,112639,105334,95899,94936,95487,100739,109596,114768,111336,106434,98696,93588,94935,102459,110609,116566,115834,107529,101586,97491,93943,91561,94120,100859,107656,113108,115824,110847,104923,98656,96013,94211,97584,102029,108840,116032,111196,107030,98383,91873,93056,98766,106601,112693,112159,111803,108636,99836,92291,94340,103043,103903,104386,114866,110771,102636,95119,88901,89543,92394,99256,109396,112219,110635,105263,94076,91827,96129,97908,107248,112147,109549,103986,96546,92085,90575,94624,101549,107589,112618,112615,106789,99419,92607,89760,90269,93251,101037,108976,113998,116299,113754,107638,99727,98632,102078,110267,123927,127617,124386,118654,111624,112027,113001,112725,117010,115200,109188,102068,87673,86818,90685,98327,113013,114179,110503,102648,88933,89057,94389,100086,108901,109863,107639,101078,91056,90694,90720,97007,105421,110288,113321,107059,103887,97523,88393,86247,90544,98645,108726,112419,112456,110111,105858,96960,88400,87208,93115,101992,106777,109228,110345,107875,102824,97484,92999,91183,95160,100394,105691,109494,110921,108324,99675,95485,92366,92526,98257,105378,111267,114933,111166,94659,89790,90973,95363,111224,115658,114863,110213,100473,96599,96512,96232,111509,116194,120393,115138,102653,96994,97200,103077,104744,110364,116147,118174,108720,101240,98631,98509,108254,117465,123209,120794,108436,102964,98473,99968,111174,114788,120076,120438,114103,110465,103471,96936,94498,105494,110968,112410,113916,110219,103063,98021,93486,90023,99062,104012,108662,110536,103606,91911,87574,88999,99095,103399,105423,105983,99161,90687,86857,85508,89140,95397,101558,105804,108913,103876,98273,92966,87321,84319,88078,95829,104264,106956,107668,105948,99773,88541,87193,86558,88845,95110,102390,105692,106193,104722,98642,90514,86344,86553,89559,97941,103543,104724,104621,104050,97494,89666,86476,94779,97153,102803,109949,106615,102106,98863,89564,86093,90170,93764,101548,107336,111056,104874,93680,79210,86604,93080,100484,108709,110012,105022,98524,88866,84276,85694,87674,92229,100547,106088,106372,101890,96432,90493,85519,92086,97751,103306,107233,104566,97436,89756,82003,87269,96868,103726,107931,103442,96175,89098,84336,81606,90762,104778,107931,100459,96181,90189,88021,90518,95741,102983,108662,103182,97954,88695,85997,90207,96093,103186,107416,104451,98209,89023,85444,87123,89686,94041,99659,104744,104950,101398,96979,90068,84999,85077,87477,91312,98852,104434,104338,101218,95929,83516,80863,85154,92513,100883,105920,107656,104521,96575,85991,82713,84292,89661,98708,107421,107868,104598,98979,84614,85234,89524,95491,109841,112164,110129,103360,94151,96702,105155,110875,123759,124783,121861,114128,107201,101943,91306,90102,95227,101885,107041,108369,104319,94208,85327,82659,83048,89080,101566,106421,108889,105276,99083,90913,84984,85933,89373,99958,105431,107359,104939,98222,90249,85961,85105,88707,106369,109819,108242,105192,98991,92334,86423,84794,88228,104728,109591,110833,106954,98897,91315,87106,86448,89541,104874,111059,112138,107083,94531,90765,85772,91656,99648,106303,112320,110341,102363,95684,89043,84249,89376,98844,105669,109879,112332,108667,102526,92855,88070,88375,89851,97907,107278,114332,115716,101361,94108,90963,93074,99924,105657,113569,117804,105655,98299,93851,94013,103393,108354,116227,117841,105604,99644,96274,94219,105010,113167,115099,117481,111517,101161,92624,93739,104092,111815,114414,114141,110497,102513,94039,92063,88858,92335,98153,104154,111100,114374,109169,100144,93089,87254,92731,96319,99345,103415,105986,105020,99419,89576,84673,84102,87560,92494,101271,108893,101003,94814,88839,84353,83842,89313,94346,98864,103369,103586,101261,90455,83313,85733,92314,100720,105362,105164,100611,98201,93254,87833,86261,92704,99810,104813,101894,96677,92457,88074,89203,95299,101821,108313,106394,100001,97835,92684,88154,86071,88726,95350,100777,109943,103689,98534,91704,87526,88954,92519,103045,107939,105002,101045,93171,88149,89646,98129,107847,110292,107995,102619,94907,88689,95724,101367,107193,114383,112328,108918,99678,97031,97692,101671,107546,114870,119421,118489,111552,102007,98623,104498,112896,115146,120323,118978,114471,108488,103314,104318,110698,114814,118379,122281,122638,122562,120476,114238,108673,109089,110810,116529,120283,123108,128189,128843,124313,114348,109153,111471,113270,117613,125257,131388,132807,127030,121439,117248,112047,112166,115909,121643,126249,129710,130813,127550,122452,111051,110919,114561,118158,125324,128663,127121,123501,111500,110804,113134,116028,129286,128659,128593,124294,113410,111723,114936,115808,124599,129337,131128,128944,124503,116198,109241,110023,114382,117173,121464,129709,133275,131588,126486,121474,116908,114909,119913,130196,134118,140352,143173,140588,135841,133588,130491,133557,143505,146229,146984,144708,132565,120377,115581,111598,114296,119290,124691,131238,134264,129908,120348,115054,113691,117453,126765,131379,133583,129726,121789,117013,113088,114986,121022,126253,129293,133573,132258,126157,118889,114208,112669,116498,119937,126444,130942,134273,132335,128126,119084,116852,116971,117861,123710,132736,134925,133904,132353,124747,118798,114671,113306,120766,129356,139018,138043,126736,119460,116988,117043,123173,130508,131236,132868,129248,123554,117509,118729,121463,125884,133434,138563,141662,128656,122328,120176,120219,123505,133131,137979,139238,130944,126541,121977,121014,126482,132083,134091,136989,141892,142334,134386,128128,123004,127578,132491,141114,142747,142568,136551,126516,122575,124799,128914,132465,137036,139569,139352,141366,139582,130213,124099,123692,128118,132131,138417,137002,136836,134001,128403,120270,116349,120251,123928,129999,136120,135616,131939,127219,122155,120398,118849,116263,120680,127584,130475,130049,128384,125881,122006,117982,117693,121113,127596,131193,133004,132532,126636,120261,116075,114766,115501,119204,125611,132043,135956,134436,127080,118809,114011,112868,115329,118961,123092,133164,130080,126544,121346,116002,114382,115589,119260,126632,132306,130855,128865,122144,115297,111933,113502,118039,124249,131074,130003,125889,120591,116764,115484,118924,125048,130946,129613,126253,119399,110251,114443,118936,124942,130250,130456,125714,119636,115371,113044,115319,117930,123818,127233,127295,123091,116638,107646,103379,101662,101387,106059,108028,109099,112735,108526,103453,98010,92233,90196,91282,96133,101294,105509,106831,103878,97019,91346,87458,85146,83948,89454,99842,105498,108203,101871,95825,90496,83831,83778,86398,90216,95902,100573,101940,98191,93580,81401,79130,80852,90017,98735,100943,97958,93984,80968,75106,76918,84143,90810,95543,96544,94346,88974,80912,75976,73373,74829,88406,93294,97607,92456,78176,72649,71461,71673,76050,85329,90173,91481,90017,79586,73989,68568,73322,85603,89419,91147,88557,73412,69291,67899,69389,83617,88886,90546,85528,76089,71049,67636,68989,74736,81251,91906,94771,91499,79570,75311,69853,73611,89508,98157,101826,102056,103145,97953,92637,88873,89733,96165,101609,104759,104951,98451,90151,80596,72647,70536,70960,72461,81461,91084,94362,87694,83656,76603,71726,68669,75765,81813,87080,89153,88960,83932,78176,73931,72692,71828,76358,85463,90026,94004,84304,80194,77643,76569,78025,81898,89711,94891,95526,92014,87734,80016,74521,73813,84413,89499,95072,96224,95488,92359,80989,73254,72669,80351,87394,92491,98773,102209,98610,90759,84322,79354,78388,81277,85088,91311,96312,95809,94181,89044,81966,81719,83628,94186,103110,98806,96863,89553,84581,84509,87277,91684,98439,106712,101126,97896,93979,89406,85949,86870,92631,100546,108089,109040,104523,95184,90124,93049,97266,103896,110930,113882,111878,102365,93568,96845,101042,102874,111844,116798,117281,114673,109961,107579,101623,97874,99148,105886,115384,121708,119242,113755,107017,102522,99379,101913,108020,117216,122036,121220,118623,116049,111672,105832,101040,104606,112088,117428,119316,121625,118331,115166,109629,102511,103803,110616,119516,125088,123355,117127,110193,105933,106983,110518,118617,124252,124526,122831,118221,108786,106641,108973,111604,117966,127376,123412,118603,114789,109320,108881,107273,112317,120229,127256,129695,125341,117219,112131,108921,107705,108078,110483,118378,123513,126336,126280,119104,112445,109643,111026,112188,114586,124420,125263,124284,120556,109955,109846,111685,115699,127584,130229,126271,120292,108645,107338,109392,114038,119479,123620,129417,128653,123155,109240,104966,108291,115412,123350,129398,128145,124698,108548,103174,105901,114686,122297,128360,129119,122358,119348,114431,109482,109562,113866,117956,121771,125573,128316,125256,119988,113756,111354,107753,108171,120047,125988,129154,127984,112579,109475,109292,110188,121477,130826,129744,124401,114126,109556,105947,108143,121898,125894,129137,127809,122079,117254,113669,111846,115758,125234,128399,131932,127915,116492,113324,107513,109847,126401,129154,129889,128661,122242,116734,110798,110378,114701,118339,123419,127869,128738,123793,115209,107534,107953,114231,121444,127613,129116,125473,119153,117017,110053,107720,117703,122499,125848,126513,119459,116729,113833,109099,109347,114739,121184,127688,129074,127079,120311,