[40814,40858,40713,40737,40738,40783,40755,40773,40811,40780,40748,40774,40741,40746,40773,40780,40828,40851,40776,40759,40779,40805,40803,40784,40819,40791,40818,40768,40661,40773,40834,40781,40711,40792,40786,40743,40793,40799,40791,40711,40754,40751,40731,40771,40793,40762,40770,40739,40751,40805,40818,40781,40728,40787,40821,40786,40776,40785,40770,40766,40736,40789,40854,40817,40741,40766,40818,40778,40699,40763,40774,40750,40777,40810,40800,40804,40732,40753,40768,40770,40748,40721,40720,40794,40736,40744,40774,40742,40715,40708,40712,40727,40770,40764,40755,40817,40772,40744,40811,40819,40843,40821,40714,40788,40739,40746,40720,40748,40761,40764,40790,40757,40716,40720,40757,40732,40819,40870,40828,40817,40824,40792,40729,40699,40764,40818,40790,40803,40796,27284,-28732,-43263,-43273,-43271,-43228,-43195,-43221,-43225,-43252,-43238,-43275,-43254,-43233,-43289,-43208,-43230,-43274,-43302,-43218,-43241,-43283,-43236,-43240,-43198,-43244,-43261,-43256,-43230,-43256,-43206,-43175,-43276,-43274,-43260,-43235,-43278,-43283,-43354,-43309,-43246,-43262,-43272,-43254,-43282,-43247,-43238,-43266,-43247,-43203,-43221,-43233,-43227,-43273,-43230,-43260,-43304,-43265,-43243,-43228,-43193,-43228,-43280,-43232,-43256,-43234,-43263,-43300,-43167,-43197,-43266,-43215,-43292,-43341,-43290,-43179,-43197,-43228,-43239,-43260,-43266,-43294,-43298,-43266,-43231,-43170,-43206,-43218,-43245,-43209,-43221,-43255,-43175,-43156,-43256,-43226,-43246,-43275,-43211,-43246,-43261,-43182,-43263,-43248,-43250,-43225,-43278,-43307,-43284,-43251,-43236,-43263,-43230,-43275,-43263,-43275,-43280,-43278,-43254,-43238,-43221,-43204,-43226,-43218,-43228,-43218,-43212,-43233,-43263,-43261,-43310,-43281,-43226,-43218,-43254,-43234,-43294,-43297,-43245,-43247,-43260,-43266,-43258,-43315,-43284,-43263,-43292,-43335,-43235,-43215,-43231,-43240,-43213,-43245,-43238,-43222,-43254,-43264,-43259,-43213,-43231,-43248,-43248,-43273,-43308,-43312,-43261,-43270,-43304,-43264,-43231,-43227,-43300,-43253,-43300,-43284,-43234,-43235,-43209,-43203,-43273,-43236,-43245,-43254,-43254,-43269,-43273,-43266,-43180,-43264,-43233,-43255,-43248,-43253,-43253,-43288,-43289,-43274,-43213,-43155,-43281,-43286,-43236,-43234,-43225,-43234,-43273,-43310,-43278,-43206,-43223,-43275,-43250,-43246,-43284,-43289,-43254,-43225,-43246,-43236,-43296,-43281,-43291,-43320,-43322,-43296,-43210,-29763,26180,40734,40748,40754,40765,40827,40759,40752,40776,40756,40789,40804,40800,40788,40777,40768,40741,40754,40788,40812,40801,40786,40771,40804,40790,40711,40749,40772,40742,40842,40846,40823,40840,40764,40797,40793,40779,40758,40838,40821,40806,40773,40787,40764,40769,40778,40834,40813,40725,40762,40759,40694,40782,40794,40783,40785,40759,40748,40706,40732,40769,40746,40752,40763,40756,40729,40734,40773,40732,40735,40744,40732,40824,40769,40750,40778,40764,40734,40742,40732,40774,40773,40794,40764,40772,40773,40781,40768,40748,40735,40748,40834,40821,40747,40766,40744,40758,40746,40710,40764,40768,40759,40776,40821,40771,40736,40696,40747,40759,40785,40815,40861,40812,40784,40798,40785,40822,40733,40714,40754,40739,40796,40778,40763,40748,40735,40807,40771,40792,40764,40767,40764,40795,40756,40766,40743,40769,40826,40791,40801,40774,40757,40725,40713,40696,40781,40754,40723,40764,40786,40772,40802,40745,40756,40786,40738,40775,40719,40786,40711,40676,40742,40699,40750,40786,40805,40774,40764,40806,40772,40769,40764,40718,40747,40788,40801,40773,40746,40711,40723,40776,40739,40721,40789,40814,40865,40824,40766,40719,40765,40841,40819,40764,40813,40782,40794,40786,40772,40761,40764,40752,40698,40757,40780,40804,40744,40784,40738,40778,40796,40760,40718,40801,40739,40755,40780,40823,40778,40741,40776,40786,40806,40828,40778,40746,40739,40777,40752,40755,40761,40782,40789,40788,40804,40836,40859,40837,27283,-28705,-43273,-43241,-43173,-43201,-43231,-43238,-43273,-43262,-43275,-43236,-43240,-43266,-43290,-43290,-43215,-43155,-43255,-43252,-43255,-43252,-43187,-43206,-43217,-43204,-43155,-43260,-43253,-43230,-43223,-43244,-43261,-43267,-43258,-43324,-43240,-43185,-43210,-43265,-43238,-43221,-43208,-43171,-43295,-43262,-43258,-43229,-43248,-43288,-43294,-43197,-43199,-43251,-43226,-43243,-43183,-43189,-43243,-43223,-43265,-43253,-43212,-43246,-43231,-43250,-43270,-43250,-43250,-43208,-43278,-43303,-43270,-43235,-43265,-43248,-43296,-43271,-43281,-43275,-43243,-43276,-43275,-43325,-43261,-43262,-43248,-43225,-43183,-43245,-43307,-43316,-43295,-43251,-43293,-43301,-43301,-43266,-43296,-43249,-43232,-43288,-43276,-43233,-43275,-43256,-43273,-43329,-43265,-43219,-43220,-43255,-43230,-43265,-43226,-43258,-43253,-43251,-43311,-43221,-43248,-43218,-43218,-43256,-43251,-43283,-43261,-43276,-43241,-43286,-43307,-43274,-43281,-43267,-43245,-43245,-43235,-43274,-43276,-43253,-43238,-43271,-43293,-43253,-43221,-43291,-43294,-43284,-43247,-43227,-43244,-43256,-43299,-43291,-43257,-43300,-43288,-43288,-43293,-43238,-43236,-43323,-43248,-43268,-43230,-43189,-43170,-43225,-43293,-43203,-43217,-43279,-43250,-43255,-43255,-43253,-43236,-43263,-43278,-43268,-43271,-43269,-43206,-43233,-43251,-43271,-43269,-43255,-43272,-43250,-43297,-43265,-43194,-43256,-43179,-43246,-43241,-43258,-43258,-43251,-43221,-43245,-43275,-43281,-43287,-43243,-43260,-43266,-43202,-43281,-43258,-43267,-43315,-43313,-43293,-43208,-43223,-43237,-43243,-43213,-43276,-43285,-43271,-43233,-43211,-43288,-29760,26277,40794,40780,40780,40783,40742,40733,40813,40794,40801,40775,40814,40788,40753,40756,40788,40848,40784,40751,40750,40782,40743,40741,40707,40724,40780,40786,40741,40842,40849,40811,40809,40747,40735,40705,40744,40786,40798,40846,40889,40821,40695,40715,40748,40764,40719,40719,40762,40778,40776,40721,40723,40753,40786,40757,40769,40716,40783,40768,40744,40761,40813,40766,40789,40773,40741,40762,40731,40821,40794,40788,40804,40768,40778,40723,40713,40761,40766,40803,40799,40828,40816,40849,40821,40820,40788,40771,40767,40739,40761,40759,40797,40812,40777,40818,40785,40714,40834,40807,40728,40791,40764,40764,40813,40744,40797,40829,40769,40733,40753,40756,40754,40756,40779,40795,40755,40703,40716,40784,40713,40681,40714,40797,40723,40751,40761,40761,40756,40702,40721,40742,40794,40776,40799,40733,40734,40758,40729,40768,40769,40766,40773,40777,40801,40783,40731,40730,40744,40741,40803,40788,40781,40781,40759,40731,40770,40740,40728,40806,40809,40720,40780,40750,40754,40751,40746,40758,40775,40811,40764,40794,40803,40778,40801,40783,40829,40767,40751,40781,40796,40805,40833,40719,40727,40779,40826,40813,40795,40833,40769,40819,40775,40726,40737,40808,40801,40790,40782,40784,40787,40781,40768,40764,40771,40763,40779,40746,40740,40786,40790,40761,40783,40769,40771,40751,40780,40764,40736,40746,40734,40771,40805,40790,40743,40726,27210,-28758,-43166,-43193,-43246,-43223,-43246,-43203,-43222,-43271,-43355,-43256,-43215,-43208,-43225,-43266,-43258,-43275,-43253,-43304,-43250,-43179,-43191,-43243,-43258,-43303,-43270,-43263,-43226,-43196,-43273,-43281,-43228,-43264,-43241,-43285,-43281,-43200,-43246,-43298,-43222,-43221,-43182,-43223,-43281,-43273,-43206,-43228,-43227,-43260,-43248,-43204,-43310,-43328,-43233,-43198,-43249,-43255,-43300,-43221,-43215,-43240,-43300,-43253,-43293,-43218,-43241,-43248,-43265,-43269,-43237,-43235,-43255,-43251,-43241,-43239,-43149,-43168,-43205,-43301,-43207,-43215,-43235,-43238,-43210,-43236,-43211,-43226,-43258,-43222,-43200,-43265,-43285,-43240,-43295,-43269,-43258,-43230,-43230,-43218,-43236,-43268,-43260,-43241,-43199,-43201,-43246,-43229,-43206,-43234,-43199,-43239,-43265,-43268,-43285,-43268,-43230,-43228,-43282,-43273,-43231,-43207,-43243,-43257,-43250,-43273,-43288,-43293,-43243,-43278,-43259,-43218,-43232,-43253,-43230,-43231,-43273,-43239,-43220,-43263,-43272,-43251,-43231,-43180,-43244,-43307,-43257,-43278,-43261,-43236,-43260,-43245,-43285,-43231,-43235,-43241,-43286,-43235,-43252,-43226,-43248,-43343,-43261,-43244,-43196,-43257,-43258,-43245,-43256,-43236,-43275,-43283,-43266,-43247,-43255,-43247,-43235,-43229,-43246,-43285,-43283,-43316,-43280,-43278,-43227,-43237,-43270,-43255,-43247,-43236,-43250,-43208,-43278,-43270,-43191,-43180,-43258,-43266,-43295,-43293,-43245,-43276,-43265,-43256,-43276,-43240,-43205,-43242,-43268,-43272,-43290,-43257,-43311,-43253,-43208,-43204,-43222,-43218,-43243,-43283,-43253,-43306,-43225,-43239,-43260,-43262,-43196,-43198,-43231,-43306,-29746,26244,40761,40745,40755,40746,40789,40651,40713,40785,40782,40691,40723,40764,40735,40696,40719,40793,40796,40796,40760,40771,40759,40785,40836,40806,40738,40747,40758,40754,40758,40756,40759,40775,40748,40762,40769,40748,40793,40748,40838,40805,40796,40760,40799,40699,40732,40830,40791,40809,40849,40787,40749,40731,40814,40783,40786,40815,40731,40753,40773,40800,40773,40791,40742,40753,40764,40810,40805,40811,40809,40818,40766,40783,40781,40761,40741,40726,40719,40763,40782,40745,40729,40778,40773,40846,40814,40784,40842,40754,40757,40788,40796,40817,40788,40793,40811,40797,40774,40746,40780,40742,40762,40766,40721,40782,40770,40757,40716,40730,40761,40733,40778,40719,40726,40772,40813,40776,40723,40752,40744,40714,40728,40738,40763,40724,40768,40810,40804,40788,40756,40802,40811,40800,40756,40739,40736,40720,40728,40738,40791,40786,40742,40746,40779,40766,40718,40741,40751,40796,40768,40728,40733,40793,40774,40801,40798,40783,40803,40789,40808,40753,40729,40744,40781,40785,40799,40763,40754,40769,40719,40704,40748,40773,40731,40804,40772,40731,40817,40819,40763,40800,40777,40811,40831,40764,40755,40783,40771,40808,40787,40807,40771,40789,40798,40743,40724,40754,40729,40739,40681,40731,40752,40768,40791,40791,40773,40726,40738,40746,40724,40803,40722,40752,40788,40760,40786,40790,40807,40754,40808,40801,40761,40758,40763,40709,27253,-28746,-43261,-43260,-43265,-43270,-43265,-43357,-43296,-43243,-43228,-43253,-43180,-43258,-43241,-43234,-43217,-43179,-43225,-43282,-43288,-43242,-43243,-43220,-43313,-43265,-43300,-43303,-43248,-43241,-43276,-43261,-43291,-43235,-43263,-43250,-43249,-43260,-43233,-43201,-43179,-43241,-43241,-43231,-43286,-43260,-43270,-43249,-43223,-43290,-43270,-43238,-43225,-43190,-43178,-43191,-43253,-43271,-43239,-43283,-43278,-43222,-43275,-43280,-43233,-43236,-43277,-43299,-43244,-43223,-43268,-43280,-43285,-43321,-43263,-43300,-43220,-43273,-43300,-43304,-43263,-43213,-43270,-43273,-43253,-43193,-43334,-43236,-43202,-43151,-43239,-43220,-43202,-43206,-43319,-43275,-43245,-43234,-43283,-43255,-43261,-43301,-43297,-43333,-43265,-43279,-43282,-43246,-43235,-43206,-43214,-43249,-43207,-43235,-43220,-43242,-43251,-43272,-43311,-43251,-43216,-43196,-43190,-43240,-43252,-43271,-43191,-43196,-43231,-43274,-43280,-43217,-43221,-43271,-43230,-43234,-43212,-43271,-43263,-43246,-43258,-43271,-43231,-43248,-43166,-43267,-43306,-43273,-43318,-43291,-43281,-43273,-43288,-43271,-43261,-43268,-43201,-43238,-43262,-43271,-43251,-43243,-43271,-43220,-43201,-43236,-43243,-43260,-43276,-43262,-43238,-43264,-43235,-43228,-43255,-43245,-43274,-43284,-43184,-43191,-43231,-43253,-43249,-43246,-43245,-43234,-43271,-43275,-43236,-43236,-43260,-43220,-43210,-43288,-43274,-43292,-43273,-43288,-43286,-43256,-43246,-43230,-43211,-43213,-43181,-43313,-43302,-43294,-43255,-43227,-43195,-43242,-43191,-43221,-43240,-43241,-43186,-43216,-43234,-43241,-43275,-43220,-43210,-43252,-43311,-43201,-43214,-43284,-43275,-43230,-43220,-43274,-29736,26260,40732,40735,40778,40730,40791,40764,40716,40701,40733,40760,40784,40774,40783,40758,40786,40800,40739,40749,40826,40787,40822,40773,40674,40754,40816,40753,40809,40771,40788,40818,40796,40778,40777,40750,40779,40794,40784,40760,40788,40759,40759,40778,40761,40763,40741,40721,40759,40767,40769,40772,40763,40769,40738,40747,40782,40782,40797,40797,40774,40754,40785,40813,40808,40787,40786,40688,40762,40766,40774,40806,40768,40820,40791,40736,40735,40760,40801,40756,40701,40734,40781,40782,40730,40806,40833,40745,40754,40756,40701,40752,40834,40812,40793,40777,40781,40766,40816,40849,40790,40791,40780,40806,40706,40709,40770,40794,40822,40790,40728,40761,40759,40720,40801,40771,40741,40754,40768,40762,40766,40723,40757,40741,40746,40815,40777,40749,40787,40776,40789,40761,40736,40777,40753,40776,40784,40754,40746,40759,40785,40697,40753,40746,40742,40764,40774,40788,40734,40736,40719,40758,40766,40810,40748,40801,40798,40744,40669,40734,40739,40798,40776,40799,40801,40788,40771,40755,40763,40733,40769,40722,40707,40748,40773,40856,40755,40774,40734,40726,40780,40812,40807,40775,40768,40753,40737,40748,40799,40803,40756,40731,40790,40749,40698,40700,40688,40783,40793,40769,40758,40728,40754,40755,40759,40802,40741,40784,40760,40744,40769,40769,40803,40786,40755,40694,40726,40768,40783,40758,40773,40819,40819,40854,27269,-28768,-43190,-43238,-43220,-43230,-43250,-43227,-43233,-43266,-43228,-43205,-43168,-43216,-43273,-43298,-43255,-43249,-43258,-43248,-43226,-43265,-43227,-43250,-43205,-43243,-43255,-43235,-43241,-43225,-43240,-43251,-43231,-43257,-43253,-43200,-43233,-43288,-43246,-43255,-43255,-43238,-43246,-43240,-43283,-43258,-43270,-43237,-43264,-43236,-43238,-43220,-43201,-43224,-43223,-43230,-43224,-43246,-43271,-43285,-43270,-43214,-43218,-43271,-43284,-43265,-43226,-43230,-43284,-43272,-43219,-43254,-43210,-43253,-43344,-43290,-43243,-43227,-43204,-43193,-43222,-43218,-43231,-43263,-43242,-43265,-43188,-43193,-43270,-43236,-43271,-43244,-43179,-43191,-43249,-43186,-43209,-43259,-43246,-43306,-43261,-43264,-43229,-43228,-43241,-43245,-43203,-43203,-43245,-43248,-43262,-43257,-43243,-43233,-43287,-43199,-43247,-43274,-43290,-43233,-43262,-43262,-43228,-43242,-43238,-43238,-43273,-43248,-43238,-43252,-43232,-43276,-43285,-43278,-43218,-43248,-43248,-43270,-43226,-43251,-43248,-43229,-43328,-43267,-43236,-43286,-43286,-43285,-43232,-43266,-43268,-43233,-43235,-43266,-43296,-43240,-43216,-43253,-43277,-43220,-43263,-43286,-43253,-43268,-43240,-43215,-43263,-43281,-43269,-43219,-43240,-43287,-43333,-43263,-43256,-43275,-43295,-43283,-43225,-43270,-43297,-43260,-43237,-43271,-43224,-43304,-43302,-43313,-43290,-43236,-43165,-43230,-43240,-43285,-43314,-43266,-43258,-43263,-43279,-43245,-43275,-43291,-43252,-43316,-43295,-43266,-43303,-43218,-43267,-43321,-43248,-43210,-43276,-43271,-43270,-43251,-43300,-43321,-43295,-43297,-43247,-43223,-29756,26243,40754,40806,40789,40776,40751,40704,40736,40786,40750,40748,40783,40799,40782,40774,40786,40766,40736,40765,40711,40800,40735,40709,40749,40773,40755,40694,40753,40785,40816,40744,40766,40816,40803,40775,40729,40694,40755,40698,40754,40815,40828,40792,40711,40711,40733,40771,40798,40780,40782,40753,40818,40771,40730,40783,40804,40768,40804,40738,40717,40756,40803,40731,40746,40799,40797,40726,40698,40714,40691,40778,40798,40789,40748,40788,40763,40739,40709,40801,40792,40815,40771,40689,40740,40777,40821,40775,40734,40719,40712,40677,40773,40810,40784,40836,40833,40811,40838,40738,40726,40784,40764,40738,40783,40805,40753,40749,40771,40785,40793,40728,40750,40794,40789,40751,40695,40751,40747,40793,40788,40756,40747,40797,40741,40754,40798,40762,40733,40761,40784,40788,40801,40788,40825,40811,40743,40760,40776,40778,40785,40859,40764,40762,40762,40737,40744,40735,40789,40775,40750,40796,40811,40718,40774,40762,40790,40752,40763,40726,40689,40761,40733,40759,40785,40778,40799,40783,40794,40753,40728,40796,40824,40796,40723,40807,40758,40742,40768,40728,40691,40750,40802,40794,40778,40769,40712,40704,40716,40744,40788,40798,40754,40746,40734,40734,40774,40798,40772,40809,40822,40793,40776,40771,40725,40756,40779,40733,40774,40774,40808,40786,40727,40830,40741,40763,40742,40759,40800,40774,40760,40814,40776,40801,40756,40777,40811,40807,40799,27276,-28756,-43267,-43262,-43250,-43227,-43257,-43233,-43243,-43258,-43265,-43291,-43280,-43276,-43274,-43239,-43250,-43291,-43277,-43210,-43233,-43269,-43302,-43239,-43255,-43259,-43273,-43288,-43256,-43279,-43240,-43203,-43195,-43208,-43255,-43273,-43248,-43273,-43296,-43264,-43236,-43222,-43204,-43270,-43235,-43221,-43221,-43297,-43291,-43276,-43258,-43204,-43158,-43223,-43240,-43264,-43250,-43309,-43290,-43244,-43196,-43206,-43255,-43266,-43258,-43283,-43309,-43239,-43196,-43207,-43238,-43236,-43248,-43276,-43270,-43252,-43218,-43251,-43309,-43318,-43258,-43255,-43358,-43276,-43163,-43183,-43226,-43253,-43219,-43256,-43283,-43278,-43258,-43210,-43238,-43256,-43253,-43248,-43258,-43317,-43286,-43261,-43250,-43266,-43203,-43253,-43242,-43248,-43200,-43316,-43313,-43313,-43251,-43277,-43321,-43340,-43268,-43261,-43303,-43301,-43246,-43236,-43220,-43219,-43273,-43218,-43189,-43265,-43293,-43240,-43250,-43268,-43257,-43248,-43240,-43174,-43192,-43245,-43286,-43331,-43298,-43234,-43243,-43303,-43315,-43263,-43241,-43245,-43257,-43295,-43305,-43308,-43221,-43195,-43224,-43225,-43246,-43206,-43230,-43200,-43268,-43243,-43233,-43294,-43242,-43185,-43223,-43280,-43263,-43207,-43294,-43253,-43223,-43245,-43247,-43249,-43237,-43265,-43280,-43288,-43217,-43226,-43263,-43259,-43281,-43252,-43233,-43230,-43242,-43295,-43316,-43272,-43223,-43213,-43261,-43285,-43268,-43249,-43285,-43294,-43243,-43251,-43253,-43236,-43221,-43214,-43240,-43307,-43302,-43233,-43221,-43261,-43266,-43278,-43260,-43290,-43256,-43225,-43274,-43270,-43263,-43232,-43245,-43265,-43271,-43279,-29728,26287,40836,40783,40789,40806,40756,40748,40763,40743,40803,40804,40769,40817,40821,40750,40744,40747,40820,40773,40738,40794,40779,40779,40747,40758,40760,40733,40795,40835,40776,40789,40751,40768,40758,40774,40789,40788,40773,40779,40786,40726,40723,40761,40711,40768,40741,40756,40758,40794,40810,40802,40771,40774,40775,40694,40724,40717,40762,40802,40767,40776,40779,40792,40808,40749,40780,40800,40833,40794,40814,40770,40723,40691,40749,40784,40746,40771,40778,40766,40698,40751,40814,40766,40825,40729,40721,40749,40777,40734,40751,40781,40772,40743,40756,40733,40745,40773,40710,40751,40813,40771,40789,40747,40713,40727,40711,40711,40713,40769,40740,40791,40774,40799,40833,40756,40726,40726,40694,40776,40778,40731,40811,40843,40801,40729,40742,40736,40791,40779,40711,40790,40809,40735,40768,40708,40722,40779,40798,40792,40778,40767,40762,40748,40774,40756,40739,40738,40735,40788,40826,40817,40791,40753,40798,40802,40784,40737,40773,40774,40822,40794,40732,40746,40728,40689,40751,40755,40729,40756,40800,40834,40791,40814,40796,40724,40746,40752,40769,40763,40804,40783,40753,40759,40734,40827,40776,40743,40749,40727,40763,40724,40776,40779,40749,40776,40778,40735,40753,40711,40757,40777,40751,40795,40695,40709,40706,40746,40765,40769,40808,40781,40783,40754,40753,40769,40759,40740,40772,40776,40780,40760,40799,40778,40723,40768,40719,40745,40746,40759,40785,40764,40764,27249,-28756,-43302,-43265,-43233,-43224,-43197,-43180,-43195,-43256,-43288,-43325,-43270,-43310,-43263,-43228,-43182,-43211,-43242,-43227,-43210,-43218,-43173,-43253,-43246,-43269,-43267,-43273,-43251,-43260,-43228,-43236,-43276,-43297,-43321,-43242,-43158,-43175,-43203,-43247,-43150,-43186,-43264,-43281,-43266,-43253,-43241,-43220,-43253,-43233,-43246,-43296,-43326,-43208,-43174,-43226,-43305,-43293,-43291,-43213,-43238,-43285,-43286,-43278,-43237,-43241,-43311,-43339,-43260,-43282,-43253,-43296,-43266,-43262,-43263,-43247,-43261,-43264,-43228,-43283,-43261,-43231,-43275,-43280,-43258,-43276,-43218,-43210,-43213,-43262,-43243,-43215,-43260,-43319,-43259,-43183,-43238,-43236,-43303,-43277,-43262,-43285,-43241,-43273,-43261,-43250,-43299,-43258,-43214,-43218,-43207,-43216,-43199,-43265,-43232,-43179,-43270,-43301,-43286,-43271,-43258,-43261,-43208,-43216,-43216,-43292,-43270,-43221,-43270,-43268,-43198,-43218,-43216,-43157,-43208,-43245,-43251,-43278,-43231,-43179,-43245,-43305,-43265,-43250,-43282,-43271,-43188,-43205,-43195,-43242,-43248,-43262,-43266,-43248,-43274,-43268,-43292,-43312,-43287,-43303,-43256,-43241,-43255,-43202,-43181,-43193,-43268,-43302,-43250,-43247,-43260,-43245,-43277,-43308,-43258,-43212,-43263,-43272,-43213,-43255,-43271,-43247,-43322,-43284,-43270,-43306,-43328,-43244,-43218,-43254,-43218,-43253,-43288,-43256,-43250,-43278,-43231,-43205,-43235,-43243,-43251,-43246,-43226,-43237,-43305,-43253,-43211,-43203,-43226,-43246,-43258,-43285,-43335,-43268,-43226,-43203,-43243,-43238,-43196,-43262,-43295,-43260,-43253,-43256,-43286,-43208,-43240,-43240,-43242,-43284,-43269,-43263,-29745,26262,40781,40749,40760,40805,40770,40761,40808,40821,40773,40724,40770,40773,40712,40744,40775,40764,40775,40733,40780,40763,40773,40739,40723,40783,40777,40753,40716,40773,40801,40791,40796,40774,40678,40743,40819,40775,40738,40743,40733,40763,40729,40756,40781,40803,40839,40826,40733,40789,40799,40736,40759,40764,40773,40755,40755,40763,40761,40806,40785,40718,40725,40776,40817,40773,40776,40729,40711,40731,40766,40736,40754,40792,40779,40745,40714,40708,40692,40756,40735,40725,40726,40756,40776,40748,40731,40753,40764,40771,40789,40754,40758,40798,40789,40831,40738,40711,40789,40791,40755,40767,40737,40739,40777,40788,40773,40758,40764,40824,40759,40768,40784,40786,40783,40763,40734,40744,40813,40846,40762,40718,40750,40822,40856,40804,40735,40784,40829,40746,40763,40724,40722,40760,40776,40754,40780,40708,40724,40768,40798,40768,40696,40741,40799,40738,40766,40775,40740,40728,40708,40738,40804,40808,40756,40730,40708,40727,40714,40763,40839,40799,40770,40818,40772,40788,40751,40722,40758,40765,40744,40671,40728,40794,40767,40754,40737,40746,40809,40784,40796,40764,40770,40686,40716,40727,40771,40728,40767,40745,40791,40738,40727,40783,40763,40758,40798,40758,40773,40798,40756,40756,40755,40837,40823,40765,40795,40779,40821,40751,40673,40693,40678,40704,40724,40766,40783,40789,40769,40788,40804,40766,40775,40763,40726,40756,40794,40774,40749,40816,40740,40711,27174,-28738,-43227,-43253,-43265,-43290,-43293,-43296,-43321,-43268,-43241,-43276,-43266,-43264,-43251,-43286,-43237,-43270,-43289,-43268,-43288,-43191,-43236,-43252,-43278,-43308,-43303,-43255,-43310,-43286,-43283,-43233,-43280,-43281,-43243,-43270,-43285,-43284,-43276,-43240,-43291,-43256,-43226,-43290,-43246,-43233,-43316,-43267,-43230,-43230,-43213,-43235,-43220,-43283,-43296,-43263,-43215,-43233,-43237,-43298,-43280,-43258,-43222,-43218,-43221,-43186,-43231,-43243,-43211,-43216,-43204,-43210,-43250,-43266,-43237,-43235,-43190,-43237,-43228,-43226,-43280,-43286,-43280,-43260,-43175,-43174,-43207,-43291,-43245,-43244,-43284,-43292,-43269,-43290,-43346,-43246,-43235,-43269,-43225,-43241,-43246,-43275,-43213,-43251,-43200,-43236,-43225,-43186,-43244,-43290,-43287,-43303,-43247,-43213,-43240,-43236,-43293,-43306,-43311,-43265,-43244,-43254,-43251,-43268,-43271,-43369,-43342,-43211,-43230,-43256,-43247,-43222,-43228,-43242,-43245,-43268,-43266,-43265,-43305,-43253,-43221,-43266,-43288,-43279,-43272,-43271,-43236,-43235,-43293,-43296,-43230,-43266,-43288,-43306,-43300,-43273,-43245,-43250,-43188,-43220,-43233,-43236,-43306,-43302,-43224,-43240,-43290,-43272,-43294,-43235,-43216,-43233,-43278,-43231,-43145,-43247,-43226,-43212,-43280,-43240,-43275,-43275,-43211,-43221,-43258,-43250,-43225,-43216,-43253,-43268,-43294,-43303,-43263,-43211,-43240,-43256,-43293,-43266,-43233,-43257,-43284,-43266,-43200,-43173,-43219,-43215,-43221,-43224,-43225,-43266,-43309,-43308,-43262,-43251,-43170,-43225,-43270,-43277,-43318,-43211,-43254,-43264,-43188,-43200,-43298,-43307,-43268,-43242,-43210,-43296,-43258,-29673,26219,40758,40731,40731,40750,40781,40799,40768,40718,40786,40771,40734,40706,40774,40767,40824,40819,40784,40806,40756,40801,40788,40826,40785,40794,40855,40811,40766,40787,40819,40773,40800,40759,40762,40758,40767,40773,40753,40757,40790,40789,40784,40755,40776,40778,40746,40734,40704,40776,40801,40809,40812,40788,40793,40813,40722,40748,40768,40782,40808,40829,40801,40791,40795,40735,40744,40762,40749,40810,40839,40823,40834,40768,40770,40771,40751,40779,40858,40814,40761,40820,40821,40814,40783,40826,40759,40778,40775,40779,40772,40825,40809,40739,40748,40762,40756,40786,40791,40822,40726,40724,40716,40802,40742,40752,40753,40812,40798,40797,40758,40719,40728,40807,40794,40700,40716,40703,40721,40746,40753,40752,40777,40766,40733,40795,40765,40751,40717,40698,40749,40765,40798,40815,40804,40751,40801,40788,40767,40757,40739,40812,40851,40793,40796,40774,40694,40764,40735,40711,40786,40781,40824,40776,40763,40778,40775,40773,40809,40752,40779,40742,40755,40776,40758,40766,40735,40743,40771,40799,40792,40759,40800,40804,40733,40706,40762,40783,40777,40768,40748,40730,40773,40743,40777,40754,40741,40746,40758,40782,40798,40799,40805,40769,40721,40718,40756,40770,40708,40795,40813,40830,40784,40712,40726,40794,40772,40804,40766,40789,40718,40762,40722,40804,40804,40769,40794,40823,40752,40719,40725,40785,40754,40820,40778,40723,40739,40728,40685,40704,27200,-28770,-43278,-43315,-43265,-43252,-43300,-43273,-43195,-43245,-43281,-43268,-43213,-43226,-43240,-43228,-43212,-43281,-43256,-43246,-43231,-43207,-43254,-43234,-43234,-43185,-43232,-43226,-43208,-43225,-43279,-43226,-43243,-43203,-43163,-43246,-43237,-43248,-43237,-43308,-43298,-43265,-43270,-43228,-43241,-43215,-43222,-43166,-43303,-43288,-43230,-43215,-43258,-43331,-43280,-43216,-43231,-43236,-43296,-43249,-43226,-43202,-43210,-43263,-43273,-43233,-43206,-43240,-43260,-43264,-43240,-43236,-43219,-43286,-43258,-43251,-43221,-43259,-43247,-43250,-43238,-43288,-43243,-43285,-43276,-43271,-43251,-43271,-43226,-43286,-43304,-43281,-43288,-43313,-43268,-43267,-43243,-43291,-43306,-43300,-43229,-43221,-43253,-43297,-43251,-43205,-43226,-43303,-43310,-43252,-43201,-43231,-43223,-43214,-43268,-43246,-43275,-43206,-43239,-43266,-43232,-43214,-43235,-43263,-43258,-43241,-43259,-43260,-43278,-43226,-43183,-43241,-43271,-43228,-43252,-43284,-43265,-43261,-43239,-43239,-43194,-43302,-43301,-43288,-43277,-43285,-43256,-43236,-43276,-43305,-43283,-43222,-43266,-43320,-43259,-43241,-43244,-43256,-43252,-43255,-43215,-43253,-43266,-43281,-43266,-43218,-43265,-43277,-43251,-43253,-43237,-43281,-43233,-43243,-43260,-43278,-43220,-43215,-43258,-43254,-43265,-43324,-43250,-43223,-43235,-43219,-43158,-43161,-43225,-43260,-43312,-43253,-43235,-43228,-43258,-43306,-43290,-43269,-43245,-43233,-43236,-43228,-43183,-43187,-43213,-43223,-43211,-43217,-43219,-43325,-43266,-43265,-43245,-43223,-43225,-43261,-43213,-43251,-43286,-43195,-43185,-43206,-43222,-43269,-43261,-43241,-43291,-43262,-43203,-43225,-43284,-43248,-43219,-29726,26233,40732,40723,40768,40759,40768,40723,40749,40770,40733,40709,40748,40686,40714,40763,40776,40814,40886,40752,40748,40718,40739,40818,40769,40756,40763,40761,40743,40774,40848,40809,40774,40781,40769,40699,40714,40762,40761,40781,40798,40787,40722,40756,40736,40751,40721,40765,40725,40733,40831,40799,40793,40801,40779,40783,40768,40781,40801,40778,40766,40749,40786,40751,40791,40802,40825,40806,40809,40797,40734,40748,40802,40785,40785,40796,40796,40752,40744,40770,40743,40687,40720,40789,40772,40737,40763,40788,40825,40789,40763,40769,40778,40781,40799,40806,40738,40756,40763,40735,40742,40747,40818,40866,40798,40786,40696,40706,40741,40726,40794,40776,40722,40742,40826,40768,40777,40755,40737,40755,40811,40778,40859,40802,40773,40765,40760,40759,40804,40782,40786,40754,40755,40764,40758,40725,40766,40756,40778,40761,40769,40831,40744,40723,40772,40739,40720,40783,40775,40768,40802,40809,40809,40798,40794,40826,40724,40741,40766,40718,40744,40798,40739,40740,40725,40778,40779,40781,40751,40813,40798,40760,40767,40718,40738,40723,40763,40759,40773,40756,40779,40735,40792,40764,40735,40729,40744,40732,40741,40822,40742,40746,40769,40818,40859,40771,40748,40777,40786,40792,40806,40763,40739,40761,40766,40770,40797,40752,40726,40800,40802,40749,40732,40809,40832,40726,40753,40776,40795,40730,40696,40770,40754,40739,40732,40752,40761,40769,40799,40763,40754,40733,40789,27299,-28745,-43304,-43289,-43247,-43285,-43332,-43276,-43215,-43214,-43265,-43245,-43258,-43240,-43220,-43265,-43279,-43311,-43266,-43291,-43270,-43254,-43211,-43203,-43205,-43276,-43300,-43362,-43278,-43210,-43256,-43303,-43275,-43249,-43225,-43279,-43225,-43232,-43255,-43301,-43276,-43324,-43277,-43271,-43301,-43201,-43217,-43252,-43298,-43262,-43281,-43302,-43318,-43309,-43275,-43280,-43256,-43215,-43243,-43278,-43303,-43301,-43271,-43203,-43256,-43269,-43211,-43215,-43243,-43242,-43203,-43183,-43201,-43234,-43215,-43236,-43295,-43252,-43257,-43223,-43204,-43241,-43247,-43225,-43183,-43282,-43275,-43213,-43251,-43241,-43268,-43255,-43300,-43276,-43261,-43214,-43243,-43247,-43282,-43236,-43220,-43245,-43209,-43224,-43245,-43237,-43235,-43288,-43266,-43261,-43246,-43248,-43246,-43255,-43248,-43292,-43298,-43265,-43285,-43275,-43298,-43297,-43306,-43253,-43236,-43263,-43223,-43236,-43278,-43235,-43177,-43174,-43164,-43243,-43252,-43213,-43191,-43259,-43253,-43306,-43209,-43196,-43251,-43238,-43225,-43225,-43208,-43266,-43255,-43265,-43230,-43192,-43232,-43243,-43246,-43288,-43276,-43253,-43175,-43252,-43225,-43277,-43265,-43254,-43290,-43267,-43263,-43301,-43225,-43248,-43249,-43251,-43245,-43238,-43268,-43240,-43175,-43201,-43234,-43238,-43281,-43223,-43216,-43237,-43256,-43193,-43252,-43306,-43325,-43205,-43271,-43227,-43226,-43286,-43328,-43271,-43243,-43324,-43249,-43203,-43233,-43210,-43261,-43241,-43198,-43237,-43262,-43281,-43288,-43272,-43221,-43201,-43225,-43255,-43281,-43243,-43248,-43225,-43236,-43230,-43264,-43281,-43307,-43323,-43285,-29746,26288,40775,40794,40748,40759,40766,40743,40733,40654,40708,40776,40801,40765,40778,40745,40651,40776,40781,40750,40741,40762,40799,40796,40800,40760,40772,40787,40806,40787,40838,40764,40729,40701,40774,40826,40762,40769,40783,40819,40830,40765,40721,40787,40757,40735,40853,40813,40797,40758,40821,40786,40763,40754,40794,40769,40756,40769,40788,40734,40778,40741,40729,40748,40727,40714,40721,40778,40806,40788,40780,40794,40781,40786,40744,40757,40808,40718,40761,40701,40733,40777,40812,40759,40757,40736,40771,40765,40787,40776,40713,40727,40809,40789,40708,40751,40763,40722,40715,40783,40790,40765,40726,40735,40774,40765,40722,40740,40731,40764,40747,40788,40778,40810,40801,40726,40759,40753,40741,40746,40720,40740,40769,40791,40772,40798,40791,40769,40750,40792,40773,40728,40734,40768,40838,40806,40784,40733,40789,40844,40794,40767,40773,40741,40776,40738,40775,40838,40807,40747,40848,40799,40776,40734,40744,40768,40759,40759,40739,40749,40786,40761,40701,40721,40746,40763,40723,40709,40779,40793,40731,40778,40733,40788,40836,40794,40801,40837,40799,40773,40692,40701,40810,40793,40733,40756,40899,40841,40774,40791,40763,40772,40856,40821,40779,40767,40773,40766,40743,40838,40748,40727,40759,40761,40755,40769,40753,40817,40838,40747,40691,40789,40693,40683,40750,40771,40777,40717,40723,40745,40755,40739,40759,40730,40763,40732,40703,40752,40795,40811,40808,27282,-28728,-43227,-43235,-43230,-43256,-43289,-43361,-43241,-43223,-43308,-43280,-43228,-43270,-43308,-43215,-43199,-43229,-43233,-43278,-43273,-43193,-43259,-43221,-43228,-43255,-43226,-43227,-43261,-43275,-43313,-43215,-43251,-43278,-43314,-43282,-43260,-43263,-43254,-43237,-43236,-43258,-43272,-43261,-43287,-43245,-43272,-43242,-43265,-43243,-43283,-43287,-43215,-43203,-43211,-43269,-43212,-43253,-43243,-43229,-43235,-43221,-43258,-43252,-43262,-43318,-43273,-43211,-43248,-43301,-43290,-43238,-43220,-43307,-43273,-43206,-43191,-43160,-43185,-43225,-43238,-43206,-43221,-43273,-43281,-43318,-43276,-43216,-43226,-43253,-43290,-43264,-43279,-43267,-43215,-43246,-43262,-43226,-43257,-43288,-43240,-43268,-43245,-43193,-43248,-43286,-43278,-43295,-43321,-43282,-43275,-43265,-43230,-43270,-43222,-43209,-43253,-43316,-43307,-43294,-43261,-43235,-43318,-43285,-43225,-43168,-43213,-43247,-43241,-43203,-43225,-43225,-43171,-43246,-43256,-43256,-43272,-43228,-43238,-43281,-43288,-43251,-43213,-43248,-43294,-43325,-43294,-43285,-43316,-43320,-43241,-43211,-43215,-43225,-43336,-43291,-43213,-43226,-43256,-43193,-43229,-43300,-43341,-43263,-43290,-43291,-43254,-43255,-43242,-43210,-43243,-43210,-43216,-43281,-43232,-43218,-43236,-43231,-43304,-43268,-43265,-43238,-43263,-43248,-43224,-43193,-43184,-43229,-43260,-43228,-43245,-43226,-43277,-43283,-43268,-43230,-43200,-43253,-43238,-43273,-43286,-43182,-43231,-43246,-43193,-43263,-43258,-43206,-43259,-43257,-43261,-43268,-43270,-43272,-43260,-43232,-43245,-43231,-43244,-43256,-43283,-43296,-43293,-43258,-43313,-29726,26275,40793,40792,40730,40833,40701,40741,40759,40745,40778,40745,40735,40764,40766,40772,40727,40774,40825,40789,40763,40778,40780,40789,40769,40759,40777,40783,40814,40818,40765,40759,40774,40778,40764,40812,40826,40781,40758,40759,40747,40753,40718,40746,40697,40676,40755,40778,40734,40778,40761,40753,40727,40736,40806,40773,40773,40796,40867,40805,40730,40782,40735,40724,40761,40799,40793,40786,40778,40792,40769,40784,40819,40845,40764,40776,40786,40787,40791,40808,40755,40738,40758,40751,40745,40806,40813,40760,40773,40729,40771,40844,40828,40773,40706,40729,40766,40750,40753,40806,40821,40750,40704,40730,40771,40743,40734,40824,40816,40748,40784,40778,40769,40738,40711,40754,40778,40817,40754,40789,40749,40783,40720,40723,40734,40749,40763,40818,40807,40796,40785,40706,40774,40749,40775,40728,40703,40730,40743,40778,40760,40787,40763,40726,40755,40752,40777,40794,40757,40786,40759,40793,40730,40758,40761,40778,40804,40803,40816,40777,40795,40771,40814,40811,40771,40769,40729,40698,40764,40756,40739,40739,40732,40780,40826,40793,40826,40801,40736,40782,40799,40754,40783,40826,40804,40746,40718,40749,40795,40819,40795,40764,40741,40724,40750,40756,40778,40791,40790,40717,40749,40764,40707,40743,40785,40786,40771,40774,40768,40789,40796,40741,40726,40752,40729,40781,40761,40723,40756,40731,40762,40733,40829,40840,40784,40741,40781,27229,-28748,-43199,-43279,-43279,-43236,-43295,-43200,-43217,-43225,-43250,-43216,-43254,-43250,-43238,-43211,-43234,-43306,-43266,-43268,-43306,-43258,-43260,-43239,-43276,-43233,-43252,-43255,-43231,-43217,-43252,-43212,-43180,-43220,-43267,-43269,-43303,-43260,-43278,-43240,-43291,-43281,-43210,-43229,-43304,-43251,-43205,-43225,-43235,-43205,-43210,-43272,-43250,-43262,-43253,-43236,-43257,-43266,-43249,-43248,-43264,-43248,-43260,-43261,-43290,-43218,-43252,-43266,-43245,-43235,-43239,-43260,-43258,-43289,-43231,-43207,-43274,-43201,-43186,-43258,-43234,-43228,-43217,-43276,-43231,-43244,-43271,-43238,-43256,-43219,-43229,-43270,-43288,-43261,-43272,-43198,-43288,-43278,-43229,-43260,-43330,-43268,-43282,-43266,-43220,-43243,-43273,-43196,-43190,-43237,-43253,-43246,-43221,-43273,-43278,-43275,-43248,-43226,-43211,-43244,-43313,-43313,-43307,-43253,-43205,-43215,-43213,-43261,-43278,-43270,-43282,-43281,-43253,-43252,-43253,-43265,-43331,-43300,-43225,-43262,-43275,-43224,-43210,-43263,-43227,-43249,-43271,-43268,-43321,-43296,-43263,-43241,-43225,-43255,-43349,-43234,-43278,-43314,-43246,-43303,-43301,-43258,-43235,-43232,-43248,-43255,-43211,-43296,-43316,-43265,-43260,-43272,-43261,-43280,-43303,-43186,-43176,-43255,-43201,-43215,-43270,-43318,-43262,-43239,-43201,-43256,-43243,-43188,-43252,-43305,-43258,-43334,-43265,-43205,-43215,-43266,-43268,-43216,-43260,-43225,-43199,-43238,-43245,-43245,-43254,-43231,-43253,-43261,-43267,-43283,-43236,-43244,-43306,-43291,-43250,-43236,-43231,-43197,-43206,-43194,-43215,-43239,-43245,-43255,-43278,-43313,-43263,-43290,-43278,-29761,26284,40803,40776,40774,40761,40724,40731,40735,40739,40728,40728,40723,40768,40761,40768,40691,40718,40748,40719,40773,40817,40715,40726,40733,40802,40789,40761,40764,40728,40753,40781,40762,40775,40769,40788,40759,40793,40818,40807,40833,40806,40841,40776,40748,40711,40752,40741,40739,40731,40682,40693,40718,40735,40802,40776,40706,40701,40759,40795,40704,40773,40771,40793,40791,40777,40788,40791,40767,40769,40801,40731,40721,40744,40739,40774,40773,40765,40738,40788,40775,40812,40751,40699,40773,40787,40771,40796,40747,40718,40788,40725,40739,40785,40788,40723,40763,40751,40743,40744,40787,40838,40749,40766,40818,40761,40786,40734,40759,40770,40744,40715,40702,40740,40715,40683,40704,40758,40761,40795,40810,40771,40749,40729,40744,40762,40725,40711,40720,40741,40777,40786,40768,40738,40703,40773,40830,40809,40831,40805,40804,40790,40792,40803,40748,40694,40686,40727,40728,40789,40806,40809,40723,40716,40744,40776,40756,40754,40783,40745,40776,40732,40793,40781,40700,40753,40726,40785,40769,40730,40739,40808,40794,40767,40749,40789,40774,40781,40820,40800,40791,40746,40721,40768,40748,40739,40789,40760,40722,40709,40768,40749,40797,40813,40763,40746,40762,40759,40751,40779,40744,40734,40757,40847,40839,40802,40804,40774,40749,40748,40791,40793,40821,40764,40734,40735,40767,40781,40750,40746,40809,40811,40703,40701,40739,40704,40761,40736,40789,40801,40823,40761,40738,27297,-28725,-43209,-43282,-43273,-43248,-43263,-43260,-43248,-43212,-43215,-43291,-43250,-43225,-43245,-43250,-43289,-43285,-43296,-43300,-43301,-43270,-43260,-43223,-43258,-43318,-43276,-43249,-43274,-43241,-43235,-43300,-43258,-43254,-43227,-43276,-43310,-43335,-43278,-43241,-43234,-43231,-43240,-43218,-43245,-43260,-43267,-43217,-43226,-43304,-43221,-43256,-43240,-43244,-43284,-43277,-43202,-43191,-43201,-43258,-43252,-43258,-43240,-43288,-43265,-43194,-43170,-43225,-43217,-43320,-43282,-43283,-43255,-43263,-43295,-43255,-43281,-43271,-43260,-43256,-43230,-43245,-43218,-43204,-43246,-43219,-43181,-43241,-43221,-43210,-43242,-43250,-43195,-43239,-43316,-43309,-43243,-43185,-43274,-43358,-43283,-43246,-43279,-43273,-43235,-43223,-43213,-43283,-43287,-43260,-43235,-43232,-43270,-43256,-43250,-43275,-43228,-43231,-43284,-43283,-43255,-43265,-43272,-43250,-43235,-43251,-43193,-43229,-43188,-43218,-43260,-43180,-43183,-43224,-43238,-43270,-43226,-43226,-43291,-43272,-43225,-43277,-43258,-43216,-43220,-43209,-43248,-43243,-43330,-43285,-43231,-43270,-43283,-43225,-43264,-43268,-43238,-43244,-43215,-43242,-43274,-43210,-43168,-43266,-43308,-43258,-43238,-43243,-43276,-43318,-43289,-43235,-43281,-43245,-43231,-43224,-43301,-43298,-43227,-43279,-43290,-43259,-43226,-43217,-43232,-43223,-43259,-43248,-43259,-43270,-43271,-43290,-43295,-43243,-43254,-43251,-43233,-43232,-43221,-43285,-43293,-43236,-43328,-43312,-43246,-43316,-43303,-43248,-43215,-43227,-43243,-43248,-43164,-43213,-43204,-43263,-43280,-43211,-43286,-43272,-43306,-43261,-43208,-43235,-43295,-43309,-43281,-43265,-43219,-29700,26296,40765,40769,40801,40716,40819,40798,40757,40764,40776,40802,40761,40739,40744,40788,40833,40792,40761,40811,40731,40730,40749,40761,40820,40794,40819,40834,40784,40789,40714,40749,40754,40795,40773,40805,40829,40790,40790,40775,40723,40698,40769,40751,40794,40776,40751,40708,40728,40761,40745,40742,40751,40771,40732,40729,40756,40754,40800,40830,40814,40795,40798,40858,40829,40729,40700,40731,40742,40764,40814,40800,40801,40761,40816,40769,40767,40714,40713,40708,40732,40740,40767,40720,40664,40764,40813,40735,40719,40775,40743,40804,40813,40704,40749,40847,40748,40831,40824,40757,40724,40768,40800,40842,40781,40745,40743,40800,40764,40742,40770,40786,40853,40819,40777,40788,40821,40724,40756,40759,40770,40777,40763,40724,40744,40738,40723,40719,40803,40791,40734,40734,40785,40771,40720,40743,40757,40779,40753,40733,40727,40771,40738,40784,40734,40719,40767,40829,40726,40766,40744,40779,40696,40763,40710,40741,40798,40788,40781,40769,40794,40749,40757,40767,40774,40781,40798,40801,40743,40767,40771,40793,40833,40778,40803,40816,40796,40785,40758,40748,40795,40833,40758,40807,40768,40711,40721,40762,40767,40796,40814,40711,40784,40766,40770,40784,40748,40773,40761,40768,40766,40783,40762,40733,40703,40729,40743,40791,40774,40724,40704,40816,40768,40743,40767,40785,40815,40778,40828,40831,40773,40701,40692,27213,-28746,-43216,-43246,-43268,-43308,-43326,-43232,-43266,-43300,-43236,-43220,-43275,-43242,-43242,-43316,-43266,-43198,-43246,-43243,-43233,-43197,-43191,-43233,-43286,-43257,-43245,-43334,-43304,-43253,-43254,-43203,-43213,-43230,-43255,-43326,-43245,-43223,-43265,-43294,-43196,-43222,-43206,-43215,-43241,-43223,-43276,-43283,-43275,-43285,-43304,-43248,-43239,-43270,-43253,-43254,-43270,-43228,-43276,-43306,-43238,-43196,-43255,-43188,-43190,-43206,-43207,-43205,-43223,-43255,-43281,-43256,-43271,-43286,-43233,-43312,-43293,-43265,-43263,-43263,-43254,-43297,-43261,-43231,-43260,-43233,-43206,-43163,-43246,-43288,-43268,-43238,-43266,-43230,-43283,-43251,-43270,-43245,-43223,-43248,-43298,-43291,-43287,-43216,-43241,-43266,-43305,-43313,-43248,-43191,-43248,-43238,-43187,-43195,-43264,-43259,-43251,-43206,-43236,-43246,-43248,-43281,-43301,-43275,-43295,-43294,-43303,-43258,-43281,-43248,-43256,-43291,-43305,-43255,-43281,-43305,-43268,-43252,-43263,-43246,-43269,-43288,-43223,-43289,-43271,-43227,-43243,-43226,-43297,-43212,-43219,-43223,-43222,-43219,-43235,-43225,-43259,-43296,-43273,-43230,-43275,-43241,-43253,-43263,-43238,-43253,-43251,-43285,-43271,-43254,-43260,-43217,-43201,-43241,-43225,-43232,-43270,-43325,-43273,-43274,-43298,-43272,-43206,-43244,-43268,-43281,-43279,-43266,-43223,-43200,-43233,-43231,-43211,-43290,-43288,-43261,-43170,-43176,-43237,-43259,-43226,-43213,-43263,-43300,-43264,-43233,-43227,-43303,-43223,-43241,-43306,-43296,-43266,-43270,-43230,-43253,-43240,-43220,-43230,-43260,-43303,-43208,-43193,-43240,-43275,-43205,-43250,-29769,26226,40733,40729,40767,40803,40823,40779,40746,40761,40775,40769,40727,40703,40742,40770,40728,40781,40759,40747,40689,40769,40847,40838,40799,40766,40768,40796,40688,40707,40746,40760,40799,40746,40753,40782,40712,40738,40765,40711,40751,40768,40800,40801,40706,40724,40743,40783,40786,40787,40831,40781,40739,40752,40761,40668,40696,40808,40790,40793,40783,40768,40728,40762,40771,40734,40714,40761,40781,40763,40696,40655,40698,40774,40718,40711,40722,40783,40794,40821,40793,40788,40798,40749,40766,40751,40752,40751,40786,40771,40761,40766,40773,40678,40694,40731,40736,40785,40780,40748,40746,40783,40759,40741,40794,40787,40797,40814,40788,40815,40810,40786,40830,40801,40771,40730,40737,40764,40742,40758,40749,40751,40795,40703,40686,40789,40756,40738,40734,40751,40816,40806,40811,40815,40760,40705,40771,40813,40775,40770,40780,40759,40753,40733,40806,40799,40773,40733,40736,40729,40741,40714,40720,40731,40718,40763,40744,40796,40807,40765,40753,40693,40781,40810,40771,40731,40784,40789,40718,40726,40769,40746,40758,40792,40771,40696,40752,40761,40737,40758,40792,40738,40736,40766,40698,40781,40704,40771,40844,40811,40751,40774,40760,40732,40751,40793,40724,40729,40753,40715,40723,40734,40859,40782,40761,40718,40766,40779,40698,40767,40755,40701,40761,40743,40741,40718,40741,40769,40769,40773,40771,40776,40812,40796,40771,40727,40768,40825,27314,-28728,-43238,-43280,-43331,-43315,-43247,-43274,-43241,-43226,-43194,-43276,-43308,-43261,-43219,-43244,-43288,-43285,-43240,-43301,-43297,-43245,-43242,-43273,-43261,-43308,-43246,-43193,-43235,-43241,-43231,-43220,-43291,-43341,-43286,-43275,-43268,-43250,-43198,-43280,-43316,-43239,-43280,-43246,-43267,-43273,-43280,-43315,-43271,-43297,-43283,-43230,-43286,-43251,-43219,-43265,-43215,-43253,-43270,-43236,-43270,-43279,-43311,-43280,-43311,-43248,-43287,-43275,-43251,-43270,-43331,-43284,-43271,-43292,-43285,-43242,-43200,-43219,-43234,-43308,-43288,-43255,-43213,-43222,-43225,-43236,-43218,-43290,-43268,-43216,-43225,-43257,-43200,-43180,-43233,-43266,-43261,-43217,-43231,-43226,-43228,-43253,-43256,-43203,-43238,-43278,-43268,-43255,-43286,-43245,-43262,-43225,-43272,-43281,-43295,-43280,-43283,-43285,-43213,-43201,-43241,-43263,-43286,-43300,-43228,-43218,-43196,-43245,-43270,-43190,-43216,-43259,-43196,-43198,-43271,-43287,-43263,-43287,-43270,-43234,-43245,-43206,-43203,-43300,-43256,-43181,-43232,-43276,-43271,-43308,-43271,-43280,-43270,-43271,-43247,-43200,-43226,-43244,-43260,-43241,-43255,-43208,-43243,-43250,-43240,-43286,-43257,-43250,-43279,-43323,-43320,-43228,-43268,-43261,-43256,-43242,-43250,-43261,-43283,-43306,-43293,-43295,-43280,-43283,-43308,-43251,-43221,-43203,-43240,-43258,-43256,-43251,-43282,-43273,-43294,-43300,-43264,-43225,-43201,-43247,-43280,-43256,-43208,-43255,-43264,-43278,-43245,-43230,-43282,-43293,-43297,-43284,-43242,-43301,-43218,-43273,-43280,-43243,-43276,-43271,-43276,-43306,-43285,-43226,-43270,-43265,-43253,-43164,-43197,-43233,-29709,26262,40718,40720,40744,40739,40773,40790,40775,40771,40782,40778,40769,40777,40777,40784,40751,40761,40739,40735,40734,40753,40805,40777,40784,40754,40759,40749,40772,40747,40756,40688,40729,40790,40751,40749,40797,40755,40778,40719,40719,40728,40759,40728,40767,40776,40803,40816,40822,40787,40744,40704,40707,40764,40788,40792,40788,40787,40788,40723,40763,40738,40739,40750,40774,40762,40767,40776,40776,40766,40694,40748,40704,40784,40793,40731,40771,40795,40756,40754,40783,40854,40810,40737,40728,40791,40766,40784,40739,40689,40758,40755,40780,40776,40783,40736,40771,40791,40753,40762,40742,40746,40718,40791,40819,40738,40799,40796,40749,40736,40758,40709,40696,40729,40763,40779,40753,40777,40789,40835,40821,40779,40831,40803,40749,40723,40782,40731,40771,40833,40786,40773,40788,40748,40734,40771,40776,40773,40797,40777,40758,40770,40774,40811,40761,40802,40784,40825,40658,40736,40689,40700,40736,40822,40821,40761,40746,40736,40714,40733,40800,40804,40781,40757,40762,40778,40714,40744,40744,40713,40753,40767,40756,40763,40710,40775,40815,40768,40738,40755,40784,40816,40805,40797,40801,40734,40763,40731,40718,40728,40763,40752,40771,40791,40760,40762,40810,40742,40768,40753,40791,40779,40849,40788,40803,40777,40773,40782,40688,40728,40780,40743,40816,40818,40789,40778,40767,40753,40761,40764,40791,40768,40779,40783,40767,40833,40776,40751,40773,40783,40796,27236,-28763,-43249,-43218,-43263,-43300,-43304,-43295,-43296,-43291,-43280,-43211,-43218,-43253,-43220,-43249,-43225,-43222,-43214,-43275,-43226,-43241,-43203,-43200,-43263,-43239,-43243,-43253,-43205,-43241,-43290,-43268,-43315,-43306,-43240,-43246,-43287,-43326,-43266,-43262,-43233,-43277,-43274,-43231,-43229,-43275,-43281,-43237,-43245,-43301,-43221,-43226,-43270,-43193,-43205,-43246,-43249,-43159,-43233,-43235,-43221,-43202,-43233,-43230,-43311,-43330,-43285,-43237,-43258,-43222,-43220,-43281,-43310,-43237,-43260,-43271,-43257,-43216,-43279,-43271,-43311,-43236,-43249,-43305,-43265,-43231,-43244,-43278,-43240,-43250,-43244,-43253,-43213,-43286,-43276,-43283,-43273,-43250,-43184,-43258,-43271,-43250,-43269,-43256,-43216,-43293,-43242,-43219,-43241,-43241,-43231,-43245,-43198,-43165,-43235,-43301,-43273,-43239,-43248,-43264,-43279,-43287,-43278,-43196,-43163,-43218,-43276,-43273,-43231,-43250,-43221,-43263,-43247,-43246,-43290,-43339,-43300,-43249,-43268,-43275,-43268,-43228,-43191,-43256,-43238,-43238,-43211,-43235,-43243,-43260,-43276,-43247,-43312,-43297,-43213,-43213,-43240,-43221,-43256,-43241,-43255,-43294,-43287,-43236,-43230,-43233,-43256,-43254,-43237,-43289,-43248,-43223,-43290,-43274,-43293,-43254,-43294,-43258,-43225,-43245,-43270,-43230,-43245,-43229,-43276,-43267,-43248,-43306,-43230,-43236,-43271,-43230,-43195,-43172,-43274,-43250,-43230,-43310,-43288,-43233,-43204,-43200,-43243,-43193,-43270,-43279,-43240,-43273,-43306,-43257,-43223,-43220,-43231,-43212,-43255,-43288,-43230,-43205,-43241,-43217,-43241,-43275,-43276,-43237,-43237,-29780,26209,40768,40728,40794,40764,40716,40731,40731,40741,40790,40771,40734,40762,40766,40754,40759,40719,40679,40771,40806,40780,40818,40849,40751,40753,40751,40758,40704,40715,40777,40819,40781,40685,40796,40777,40724,40753,40770,40767,40782,40785,40770,40768,40779,40794,40734,40736,40763,40801,40781,40752,40723,40723,40754,40818,40785,40824,40810,40807,40773,40739,40726,40753,40788,40781,40807,40769,40776,40839,40776,40747,40782,40798,40851,40829,40847,40811,40751,40714,40726,40836,40754,40740,40808,40776,40761,40758,40784,40769,40773,40783,40694,40828,40782,40810,40756,40799,40748,40685,40677,40784,40758,40703,40747,40774,40758,40751,40777,40813,40809,40770,40759,40715,40700,40687,40801,40819,40816,40825,40809,40738,40735,40770,40767,40710,40784,40762,40779,40759,40755,40745,40732,40749,40788,40766,40743,40693,40740,40787,40804,40771,40807,40744,40789,40796,40764,40783,40774,40721,40725,40753,40731,40711,40801,40753,40778,40783,40778,40811,40776,40766,40776,40761,40790,40805,40779,40723,40751,40749,40767,40787,40725,40743,40761,40796,40749,40809,40746,40761,40764,40771,40748,40759,40773,40706,40719,40759,40755,40753,40737,40749,40751,40756,40828,40773,40824,40809,40795,40768,40786,40779,40733,40769,40808,40837,40807,40789,40783,40694,40774,40797,40721,40739,40722,40749,40791,40730,40714,40771,40780,40741,40767,40780,27255,-28763,-43239,-43298,-43249,-43251,-43226,-43237,-43215,-43213,-43257,-43266,-43270,-43325,-43314,-43251,-43262,-43295,-43261,-43205,-43286,-43298,-43281,-43266,-43261,-43217,-43243,-43258,-43212,-43208,-43224,-43263,-43241,-43223,-43232,-43220,-43246,-43286,-43261,-43285,-43273,-43231,-43288,-43310,-43246,-43213,-43257,-43263,-43236,-43251,-43236,-43245,-43228,-43243,-43260,-43196,-43241,-43280,-43201,-43237,-43243,-43261,-43242,-43250,-43281,-43223,-43218,-43219,-43231,-43233,-43241,-43317,-43268,-43255,-43331,-43303,-43273,-43300,-43266,-43237,-43244,-43233,-43260,-43251,-43235,-43243,-43262,-43250,-43174,-43160,-43239,-43213,-43232,-43306,-43209,-43275,-43295,-43274,-43181,-43179,-43229,-43276,-43246,-43281,-43251,-43246,-43224,-43265,-43211,-43206,-43272,-43258,-43292,-43311,-43316,-43343,-43298,-43271,-43257,-43239,-43283,-43302,-43310,-43311,-43251,-43271,-43296,-43257,-43294,-43268,-43290,-43273,-43279,-43243,-43207,-43248,-43268,-43236,-43224,-43255,-43198,-43220,-43294,-43266,-43261,-43273,-43230,-43273,-43296,-43265,-43223,-43260,-43234,-43233,-43206,-43306,-43261,-43210,-43206,-43260,-43275,-43238,-43251,-43244,-43225,-43201,-43224,-43224,-43307,-43314,-43237,-43286,-43265,-43256,-43289,-43300,-43278,-43266,-43248,-43236,-43280,-43290,-43262,-43311,-43301,-43222,-43212,-43295,-43295,-43240,-43250,-43241,-43269,-43280,-43285,-43249,-43232,-43231,-43283,-43263,-43245,-43280,-43251,-43206,-43253,-43260,-43261,-43314,-43336,-43276,-43329,-43273,-43231,-43235,-43235,-43207,-43211,-43266,-43253,-43246,-43280,-43259,-43188,-43230,-43296,-43326,-43256,-43305,-43280,-29711,26282,40749,40740,40732,40732,40774,40802,40801,40771,40762,40785,40763,40822,40719,40746,40807,40809,40791,40773,40797,40811,40729,40706,40767,40754,40725,40819,40794,40736,40748,40772,40733,40745,40719,40729,40787,40747,40751,40744,40793,40750,40756,40769,40756,40768,40781,40766,40740,40813,40733,40781,40721,40736,40836,40788,40758,40741,40782,40751,40796,40714,40722,40755,40781,40766,40803,40760,40684,40743,40759,40703,40701,40743,40771,40732,40722,40731,40765,40791,40721,40738,40774,40773,40796,40773,40721,40745,40758,40716,40752,40786,40803,40805,40804,40692,40763,40735,40762,40756,40823,40811,40724,40774,40776,40750,40782,40742,40738,40761,40712,40749,40778,40792,40798,40776,40714,40833,40820,40754,40729,40726,40764,40751,40805,40804,40751,40702,40787,40724,40722,40793,40789,40774,40786,40756,40790,40796,40761,40741,40819,40831,40764,40766,40778,40778,40800,40725,40764,40730,40808,40771,40727,40761,40778,40716,40728,40711,40788,40794,40776,40710,40702,40714,40768,40775,40718,40724,40804,40799,40743,40783,40769,40763,40729,40803,40789,40735,40706,40795,40793,40779,40773,40736,40765,40805,40793,40748,40771,40777,40761,40756,40772,40804,40880,40814,40784,40771,40768,40782,40779,40761,40814,40794,40725,40743,40810,40749,40735,40789,40728,40723,40744,40676,40749,40788,40730,40727,40720,40759,40758,40751,40765,40788,40788,40804,40791,40751,40757,40808,40829,40808,40799,40789,40737,40732,27255,-28684,-43215,-43236,-43211,-43228,-43288,-43291,-43283,-43265,-43253,-43258,-43186,-43258,-43247,-43244,-43265,-43270,-43271,-43246,-43236,-43253,-43261,-43279,-43251,-43235,-43259,-43209,-43275,-43300,-43205,-43230,-43259,-43245,-43246,-43251,-43263,-43286,-43223,-43237,-43255,-43262,-43220,-43255,-43248,-43250,-43273,-43316,-43292,-43203,-43235,-43286,-43203,-43247,-43261,-43193,-43247,-43246,-43237,-43337,-43315,-43305,-43283,-43261,-43244,-43230,-43205,-43201,-43260,-43188,-43228,-43316,-43286,-43215,-43217,-43265,-43262,-43286,-43247,-43246,-43297,-43242,-43273,-43252,-43320,-43301,-43208,-43183,-43261,-43233,-43241,-43267,-43255,-43241,-43271,-43233,-43250,-43254,-43260,-43246,-43240,-43223,-43230,-43243,-43238,-43342,-43286,-43234,-43238,-43286,-43232,-43231,-43235,-43236,-43223,-43286,-43278,-43198,-43223,-43195,-43211,-43250,-43221,-43266,-43245,-43279,-43317,-43251,-43209,-43209,-43231,-43311,-43337,-43323,-43269,-43226,-43273,-43260,-43216,-43217,-43256,-43236,-43303,-43227,-43253,-43293,-43306,-43271,-43265,-43304,-43306,-43232,-43263,-43243,-43249,-43260,-43237,-43263,-43265,-43231,-43246,-43222,-43235,-43223,-43254,-43253,-43254,-43251,-43180,-43216,-43275,-43278,-43262,-43237,-43291,-43310,-43296,-43289,-43270,-43233,-43260,-43258,-43308,-43284,-43256,-43261,-43300,-43290,-43225,-43240,-43255,-43287,-43278,-43233,-43260,-43278,-43268,-43243,-43299,-43263,-43298,-43290,-43236,-43280,-43275,-43195,-43235,-43260,-43295,-43282,-43257,-43219,-43226,-43208,-43229,-43216,-43233,-43184,-43256,-43278,-43305,-43248,-43225,-43276,-43296,-29742,26228,40727,40789,40752,40723,40853,40820,40784,40772,40757,40768,40781,40749,40746,40788,40739,40704,40732,40836,40809,40751,40774,40843,40809,40803,40753,40778,40780,40851,40842,40796,40798,40792,40788,40770,40768,40808,40781,40795,40702,40721,40749,40783,40789,40761,40711,40746,40751,40763,40824,40778,40675,40722,40765,40756,40763,40799,40763,40807,40860,40803,40744,40758,40748,40749,40752,40725,40746,40718,40776,40744,40760,40749,40827,40801,40731,40786,40784,40855,40818,40756,40774,40745,40771,40700,40782,40774,40769,40809,40791,40754,40759,40758,40796,40824,40740,40818,40821,40759,40725,40769,40747,40781,40708,40815,40760,40753,40749,40740,40721,40764,40721,40704,40739,40771,40800,40743,40818,40719,40789,40811,40830,40771,40737,40716,40740,40716,40700,40752,40749,40804,40765,40734,40775,40743,40767,40823,40823,40804,40752,40737,40768,40738,40755,40751,40763,40768,40811,40771,40716,40710,40726,40733,40749,40743,40795,40798,40754,40762,40753,40773,40806,40783,40791,40783,40733,40784,40793,40741,40701,40756,40806,40819,40766,40759,40789,40817,40751,40794,40753,40795,40805,40833,40813,40771,40765,40779,40708,40693,40773,40779,40802,40814,40731,40694,40696,40771,40733,40745,40786,40843,40793,40794,40773,40720,40721,40854,40816,40834,40834,40688,40725,40733,40831,40804,40796,40802,40789,40739,40741,40766,27221,-28802,-43314,-43306,-43289,-43221,-43240,-43251,-43178,-43242,-43285,-43248,-43231,-43250,-43251,-43273,-43281,-43263,-43277,-43301,-43283,-43229,-43255,-43292,-43303,-43273,-43223,-43240,-43278,-43212,-43249,-43297,-43252,-43262,-43293,-43245,-43169,-43191,-43245,-43280,-43293,-43259,-43268,-43199,-43202,-43243,-43270,-43279,-43333,-43341,-43253,-43265,-43278,-43283,-43242,-43182,-43170,-43196,-43231,-43219,-43284,-43221,-43216,-43225,-43241,-43285,-43325,-43314,-43237,-43208,-43316,-43281,-43270,-43291,-43330,-43258,-43261,-43272,-43283,-43285,-43257,-43207,-43209,-43253,-43285,-43205,-43290,-43319,-43262,-43236,-43263,-43309,-43330,-43273,-43249,-43228,-43215,-43191,-43210,-43241,-43265,-43301,-43251,-43234,-43210,-43281,-43280,-43270,-43205,-43162,-43205,-43178,-43288,-43301,-43228,-43249,-43206,-43254,-43233,-43245,-43212,-43241,-43271,-43253,-43305,-43211,-43250,-43289,-43304,-43290,-43247,-43278,-43356,-43323,-43240,-43252,-43285,-43253,-43221,-43218,-43200,-43195,-43300,-43266,-43185,-43243,-43230,-43272,-43235,-43203,-43251,-43275,-43240,-43223,-43243,-43296,-43257,-43245,-43272,-43248,-43190,-43259,-43328,-43270,-43233,-43322,-43229,-43278,-43261,-43280,-43291,-43268,-43293,-43261,-43288,-43290,-43256,-43204,-43233,-43294,-43244,-43243,-43291,-43283,-43213,-43258,-43264,-43261,-43270,-43250,-43205,-43231,-43248,-43238,-43256,-43251,-43263,-43270,-43199,-43258,-43241,-43193,-43228,-43271,-43270,-43253,-43281,-43266,-43258,-43273,-43301,-43305,-43311,-43261,-43287,-43286,-43251,-43308,-43318,-43252,-43197,-43233,-43243,-43273,-43188,-43177,-43206,-43227,-43221,-43205,-43209,-43275,-43268,-29693,26291,40800,40770,40718,40776,40783,40758,40749,40753,40756,40809,40794,40716,40763,40761,40771,40806,40822,40752,40758,40788,40786,40781,40754,40759,40752,40741,40733,40788,40747,40744,40779,40750,40782,40786,40706,40732,40714,40760,40796,40760,40758,40784,40688,40729,40712,40775,40803,40807,40793,40738,40736,40783,40764,40721,40778,40786,40814,40800,40765,40803,40819,40803,40771,40765,40810,40767,40763,40714,40791,40774,40803,40813,40722,40767,40799,40796,40739,40761,40773,40763,40734,40700,40693,40762,40779,40826,40775,40779,40821,40788,40816,40800,40724,40731,40765,40767,40777,40754,40705,40761,40747,40714,40719,40718,40768,40753,40822,40751,40761,40736,40835,40764,40722,40771,40734,40774,40847,40811,40728,40778,40772,40788,40782,40761,40743,40760,40736,40769,40768,40742,40779,40807,40773,40717,40804,40794,40784,40762,40777,40804,40768,40741,40766,40769,40732,40818,40716,40731,40748,40749,40818,40788,40751,40752,40734,40754,40768,40729,40775,40811,40823,40753,40693,40779,40766,40757,40755,40740,40720,40751,40806,40761,40798,40796,40793,40791,40744,40769,40745,40709,40746,40796,40784,40731,40741,40794,40759,40746,40789,40798,40813,40733,40781,40787,40751,40764,40738,40741,40744,40786,40779,40720,40751,40758,40778,40786,40793,40811,40795,40769,40803,40728,40715,40755,40760,40758,40819,40818,40767,40752,40745,40769,27247,-28753,-43244,-43285,-43235,-43251,-43240,-43222,-43197,-43204,-43180,-43249,-43276,-43234,-43270,-43248,-43247,-43231,-43245,-43270,-43265,-43255,-43239,-43272,-43305,-43223,-43268,-43281,-43233,-43225,-43234,-43277,-43270,-43266,-43235,-43226,-43213,-43245,-43223,-43212,-43220,-43223,-43297,-43286,-43272,-43280,-43211,-43207,-43197,-43323,-43278,-43213,-43243,-43223,-43254,-43226,-43237,-43185,-43238,-43233,-43280,-43263,-43210,-43210,-43215,-43236,-43293,-43258,-43266,-43290,-43244,-43225,-43215,-43225,-43248,-43174,-43263,-43315,-43245,-43215,-43267,-43295,-43248,-43220,-43241,-43256,-43266,-43231,-43271,-43166,-43206,-43267,-43240,-43295,-43278,-43290,-43222,-43210,-43206,-43223,-43228,-43250,-43279,-43292,-43292,-43273,-43267,-43223,-43248,-43279,-43213,-43172,-43221,-43251,-43216,-43221,-43215,-43249,-43269,-43261,-43240,-43213,-43265,-43293,-43231,-43270,-43285,-43295,-43242,-43268,-43241,-43238,-43235,-43266,-43257,-43210,-43183,-43196,-43230,-43302,-43270,-43274,-43308,-43265,-43274,-43296,-43270,-43250,-43260,-43241,-43301,-43265,-43306,-43258,-43236,-43251,-43250,-43249,-43228,-43274,-43293,-43238,-43193,-43233,-43259,-43241,-43304,-43309,-43285,-43300,-43236,-43208,-43209,-43181,-43248,-43265,-43261,-43220,-43240,-43235,-43229,-43252,-43170,-43231,-43254,-43269,-43271,-43214,-43189,-43237,-43239,-43204,-43193,-43202,-43253,-43241,-43261,-43285,-43295,-43295,-43308,-43293,-43266,-43235,-43221,-43193,-43241,-43265,-43208,-43233,-43245,-43288,-43280,-43258,-43246,-43257,-43271,-43241,-43283,-43229,-43198,-43235,-43243,-43233,-43226,-43209,-29753,26276,40726,40764,40759,40796,40777,40764,40789,40781,40838,40773,40836,40777,40741,40741,40756,40796,40809,40709,40729,40739,40794,40799,40728,40703,40714,40741,40752,40799,40750,40719,40794,40779,40818,40783,40749,40694,40766,40832,40833,40730,40769,40808,40765,40764,40823,40738,40749,40801,40821,40834,40786,40780,40776,40783,40738,40758,40776,40780,40760,40763,40784,40784,40794,40787,40709,40735,40827,40793,40767,40771,40764,40768,40791,40774,40759,40818,40822,40783,40751,40766,40744,40756,40786,40776,40787,40799,40739,40766,40772,40769,40833,40804,40703,40799,40784,40748,40790,40751,40719,40756,40739,40727,40831,40827,40768,40765,40771,40768,40788,40764,40766,40746,40728,40813,40796,40760,40806,40773,40739,40749,40774,40761,40787,40818,40784,40756,40774,40802,40789,40790,40804,40776,40806,40811,40788,40769,40750,40749,40784,40803,40806,40811,40813,40803,40748,40783,40789,40804,40843,40764,40771,40779,40774,40767,40738,40744,40816,40786,40804,40792,40739,40777,40776,40751,40843,40837,40808,40760,40779,40799,40834,40712,40734,40730,40724,40728,40798,40839,40784,40762,40751,40764,40776,40767,40766,40823,40840,40769,40788,40859,40793,40710,40756,40794,40803,40754,40759,40784,40778,40754,40795,40816,40723,40748,40730,40729,40758,40813,40734,40756,40773,40744,40792,40747,40713,40790,40763,40815,40798,40801,40816,40806,40761,40753,40748,40721,40739,40690,40779,40778,40784,40859,27291,-28723,-43245,-43236,-43250,-43305,-43245,-43251,-43191,-43231,-43283,-43264,-43268,-43257,-43233,-43295,-43290,-43262,-43301,-43237,-43247,-43193,-43213,-43271,-43228,-43196,-43200,-43170,-43166,-43215,-43232,-43286,-43225,-43255,-43204,-43215,-43253,-43225,-43215,-43285,-43193,-43200,-43228,-43222,-43244,-43230,-43238,-43280,-43245,-43291,-43241,-43290,-43324,-43261,-43282,-43258,-43306,-43291,-43275,-43302,-43260,-43268,-43275,-43244,-43271,-43290,-43237,-43246,-43267,-43254,-43241,-43238,-43298,-43309,-43225,-43305,-43288,-43256,-43248,-43260,-43235,-43206,-43280,-43195,-43207,-43282,-43264,-43237,-43239,-43253,-43238,-43288,-43208,-43198,-43287,-43300,-43305,-43275,-43308,-43195,-43201,-43226,-43212,-43246,-43252,-43225,-43233,-43221,-43183,-43231,-43259,-43257,-43270,-43225,-43242,-43228,-43228,-43212,-43226,-43201,-43168,-43246,-43290,-43256,-43228,-43263,-43261,-43258,-43216,-43228,-43266,-43290,-43237,-43249,-43253,-43278,-43285,-43281,-43267,-43234,-43196,-43210,-43284,-43243,-43226,-43191,-43230,-43240,-43238,-43223,-43205,-43266,-43311,-43216,-43246,-43265,-43250,-43255,-43228,-43262,-43251,-43250,-43266,-43251,-43259,-43213,-43221,-43231,-43254,-43237,-43233,-43278,-43280,-43248,-43149,-43164,-43238,-43235,-43213,-43231,-43295,-43259,-43264,-43275,-43305,-43258,-43210,-43234,-43272,-43226,-43243,-43266,-43330,-43253,-43262,-43261,-43218,-43162,-43120,-43211,-43197,-43211,-43308,-43256,-43218,-43233,-43220,-43256,-43329,-43255,-43296,-43236,-43226,-43251,-43223,-43251,-43246,-43233,-43298,-43361,-43289,-43223,-43238,-43241,-43258,-29818,26186,40760,40771,40769,40815,40804,40790,40785,40779,40828,40819,40764,40793,40783,40817,40768,40723,40746,40772,40799,40766,40721,40734,40763,40769,40860,40781,40736,40733,40789,40746,40736,40768,40780,40776,40721,40738,40738,40757,40773,40805,40776,40791,40794,40757,40698,40770,40786,40774,40781,40774,40723,40753,40810,40769,40787,40753,40781,40771,40720,40722,40759,40751,40731,40747,40799,40731,40744,40789,40782,40773,40755,40822,40785,40810,40829,40784,40773,40794,40698,40722,40740,40787,40814,40778,40743,40752,40758,40748,40751,40820,40836,40800,40775,40778,40717,40718,40814,40821,40791,40766,40783,40774,40701,40716,40776,40763,40732,40833,40829,40778,40795,40776,40760,40769,40753,40778,40757,40725,40750,40722,40698,40700,40719,40723,40788,40813,40753,40743,40738,40722,40753,40748,40726,40748,40748,40793,40752,40783,40808,40719,40774,40738,40724,40789,40782,40730,40718,40757,40723,40674,40698,40774,40785,40764,40770,40774,40730,40809,40771,40771,40773,40708,40710,40743,40771,40749,40727,40726,40776,40806,40793,40783,40863,40809,40819,40819,40770,40708,40789,40763,40750,40771,40741,40757,40786,40676,40688,40716,40779,40736,40784,40807,40753,40801,40799,40757,40784,40790,40753,40770,40802,40736,40689,40746,40769,40813,40862,40738,40698,40746,40719,40698,40713,40755,40746,40759,40797,40749,40739,40845,40808,40734,40801,40719,40724,40729,40770,40775,40739,27240,-28780,-43233,-43271,-43320,-43275,-43271,-43188,-43208,-43291,-43248,-43196,-43245,-43262,-43243,-43221,-43148,-43197,-43255,-43232,-43284,-43261,-43278,-43210,-43220,-43220,-43276,-43307,-43263,-43288,-43271,-43291,-43298,-43290,-43281,-43262,-43293,-43211,-43264,-43311,-43231,-43270,-43205,-43280,-43316,-43262,-43303,-43341,-43275,-43203,-43228,-43324,-43276,-43238,-43226,-43257,-43268,-43243,-43286,-43237,-43259,-43247,-43197,-43199,-43237,-43291,-43276,-43224,-43230,-43229,-43231,-43199,-43256,-43263,-43261,-43215,-43243,-43156,-43166,-43303,-43312,-43254,-43241,-43253,-43261,-43227,-43288,-43299,-43236,-43310,-43291,-43238,-43264,-43269,-43273,-43237,-43290,-43312,-43264,-43204,-43220,-43219,-43251,-43225,-43243,-43196,-43208,-43268,-43203,-43261,-43243,-43302,-43308,-43236,-43208,-43213,-43251,-43213,-43241,-43218,-43248,-43256,-43211,-43218,-43235,-43257,-43208,-43270,-43235,-43253,-43320,-43294,-43272,-43276,-43215,-43216,-43283,-43323,-43277,-43215,-43244,-43245,-43265,-43260,-43264,-43234,-43230,-43281,-43274,-43263,-43231,-43217,-43219,-43167,-43267,-43257,-43217,-43251,-43230,-43193,-43236,-43253,-43259,-43302,-43261,-43283,-43270,-43213,-43224,-43217,-43251,-43275,-43225,-43209,-43280,-43222,-43211,-43255,-43247,-43261,-43289,-43253,-43278,-43261,-43236,-43251,-43215,-43246,-43258,-43245,-43245,-43221,-43266,-43268,-43264,-43268,-43246,-43251,-43286,-43220,-43225,-43270,-43260,-43286,-43229,-43180,-43213,-43318,-43333,-43261,-43184,-43244,-43235,-43275,-43266,-43289,-43281,-43263,-43210,-43241,-43217,-43229,-43265,-43270,-43246,-43301,-29716,26256,40764,40769,40764,40809,40713,40700,40682,40738,40783,40718,40691,40768,40728,40806,40793,40804,40802,40826,40816,40828,40808,40738,40736,40753,40795,40793,40804,40754,40800,40693,40681,40709,40755,40786,40808,40764,40748,40759,40776,40779,40756]