[4.917434416666667,4.692067833333334,4.748036833333333,5.1260199166666665,5.320565083333333,5.4967904999999995,5.634405,5.34345275,4.938783416666666,4.745247999999999,4.718898333333333,5.093756,5.45741025,5.663543499999999,5.625173,5.531554749999999,5.259306916666667,4.971720499999999,4.7518835,4.795543166666667,4.849925416666666,5.02754525,5.371821916666666,5.519630083333333,5.549585999999999,5.5539135,5.385525666666666,5.064280916666666,4.815978583333333,4.758615166666666,4.711782,5.013649166666666,5.319363,5.582282666666667,5.585840833333333,5.526121333333332,5.25459475,4.983741333333333,4.8029960833333325,4.648840916666666,4.714426583333333,4.96984525,5.287099083333334,5.472171833333333,5.3330667499999995,5.2142047499999995,5.176603583333333,4.945418916666666,4.784724416666667,4.98023125,5.179344333333334,5.411442583333333,5.5204474999999995,5.36624425,5.150927083333333,4.884353083333333,4.880891083333333,5.000618583333333,5.246468666666666,5.456063916666666,5.547758833333333,5.336913416666666,5.159053166666667,4.948592416666666,4.87810225,5.1009685,5.23151475,5.299793083333333,5.471306333333334,5.3252291666666665,5.088514916666667,4.972489833333333,4.877621416666666,4.84377075,5.091688416666667,5.388843416666666,5.393267083333334,5.491405166666667,5.1944425,5.0376908333333335,4.9086351666666665,4.802034416666666,4.776646416666666,4.848050166666667,5.298927583333333,5.520207083333333,5.650561,5.571127333333333,5.2490170833333325,4.995906416666666,4.821027333333332,4.7316885,4.654466666666667,4.749912083333332,5.192471083333333,5.729658083333334,5.71504075,5.574541249999999,5.24161225,4.994944749999999,4.873870916666666,4.933253833333333,5.112316166666666,5.485779416666666,5.6554174166666655,5.690470166666667,5.495155666666666,5.222907833333333,4.96090175,5.065290666666667,5.22747575,5.531650916666667,5.820535583333332,5.827026833333334,5.6358475,5.357156499999999,5.121403916666666,5.198577666666666,5.35614675,5.689604666666667,6.080474083333333,5.8414037500000004,5.56357825,5.663831999999999,5.412885083333332,5.4905877499999995,5.61175775,5.873090666666666,6.051239416666665,6.146300166666666,6.037150999999999,5.775577666666667,5.515542999999998,5.381871333333333,5.297388916666667,5.36826375,5.564636083333333,5.747112333333334,5.978393166666667,6.150771916666666,6.119469666666667,5.874581249999999,5.469911916666667,5.221465333333334,5.136454,5.117941916666666,5.430916333333332,5.747256583333333,5.88265925,5.982191749999999,5.910595666666667,5.530352666666666,5.374129916666667,5.209540666666666,5.197423666666666,5.1645346666666665,5.264548,5.806254833333333,5.765720583333334,5.629212,5.405913000000001,5.1328958333333325,5.065386833333332,5.137319499999999,5.260268583333334,5.6880179166666665,5.730283166666667,5.702635249999999,5.483856083333333,4.999128,4.908538999999999,4.958209083333333,5.183575666666666,5.4650074166666665,5.6204608333333335,5.611950083333333,5.668111416666666,5.5511246666666665,4.9126260833333335,4.869687666666667,4.868485583333333,5.299648833333333,5.602285333333334,5.716579416666666,5.5943035,5.472652666666666,4.866802666666667,4.788907666666666,4.848579083333333,5.061203583333333,5.485154333333334,5.564395666666666,5.549682166666667,5.413894833333333,4.91906925,4.9145975,4.9953775,5.088899583333333,5.354319583333333,5.4504381666666655,5.49116475,5.288878166666666,5.0345173333333335,4.831990333333333,4.7087527499999995,4.923541,5.061636333333333,5.199106583333333,5.534055083333333,5.713405916666667,5.512417583333334,5.030862999999999,4.8405491666666665,4.86800475,4.966623666666666,5.239111916666666,5.476403166666667,5.50039675,5.393844083333334,4.949409833333333,4.78347425,4.619702416666667,4.599170833333333,5.217185916666666,5.349126583333333,5.3150355,5.342923833333333,5.403989666666667,5.298831416666666,5.267433,5.152273416666667,5.244160666666667,5.697971166666666,6.114084333333332,6.321708166666666,6.213953416666666,6.259969166666665,6.13971275,5.8284693333333335,5.516504666666666,5.248199666666666,5.083898916666667,5.29585025,5.53357425,5.663783916666667,5.741438499999998,5.70580875,5.4125485,5.110488999999999,4.853675916666666,4.727697583333334,4.738275916666667,4.896662416666666,5.033267166666667,5.279982749999999,5.373456749999999,5.422165166666666,5.1494365,4.768087583333332,4.563396833333333,4.583928416666667,4.621577666666666,4.856080083333333,5.042739583333333,5.163813416666667,5.215791499999999,5.2426700833333335,5.106546166666667,4.80828525,4.592391083333333,4.588207833333334,4.601623083333333,4.754576166666666,4.939745083333333,5.0694739166666665,5.206848,5.031055333333334,4.750777583333333,4.556953666666666,4.3416365,4.563252583333333,4.791167583333333,5.011870083333333,5.138425416666666,4.875986583333333,4.753951083333333,4.575129166666667,4.420925916666667,4.45198775,4.689086666666666,4.923877583333333,5.1488594999999995,5.271808583333333,5.1390505,4.943399416666667,4.51718875,4.413617250000001,4.489685083333334,4.780637333333333,5.166217583333333,5.18391225,4.990857666666666,4.782656833333333,4.533585166666667,4.4210701666666665,4.440399666666666,4.691538916666667,4.862619416666667,5.109960083333333,5.24824775,5.066925499999999,4.884112666666667,4.639657,4.462277583333333,4.2982172499999995,4.481799416666666,4.871274416666666,5.164967416666666,5.198962333333333,5.22430225,5.07312825,4.7363045,4.508101,4.340770999999999,4.33226025,4.47420225,4.726687833333333,5.025910416666666,5.107603999999999,4.91041425,4.6747578333333335,4.386257833333333,4.367457249999999,4.499926833333333,4.698511,4.887815083333333,5.1953560833333325,5.208915583333333,5.0654829999999995,4.942005,4.684422583333333,4.419483416666667,4.383997916666666,4.528055583333333,4.716926916666666,4.984606833333333,5.114528,5.236803916666667,5.132318833333333,4.738083583333333,4.608979833333333,4.5183427499999995,4.423089666666667,4.599074666666666,5.06418475,5.308207666666667,5.306428583333333,5.179680916666666,5.019371083333333,4.854926083333333,4.620712166666666,4.5312771666666665,4.68278775,4.8937774166666665,5.009465916666666,5.1742475,5.215647249999999,5.012831749999999,4.81347825,4.501609749999999,4.3626008333333335,4.3876522499999995,4.61181675,4.7988609166666665,5.033988416666666,5.277049666666667,5.024419833333333,4.998599083333334,4.915991916666667,4.707069833333333,4.544596250000001,4.4381397499999995,4.625616666666667,4.818767416666666,4.949025166666666,5.12650075,5.142416333333332,4.986962916666666,4.787368999999999,4.444582916666667,4.4745869166666665,4.646532916666667,4.88791125,5.1803540833333335,5.127270083333333,4.991530833333333,4.8378565,4.334520166666667,4.3041314999999996,4.462229499999999,4.823719999999999,5.347876416666666,5.381775166666666,5.108854166666666,4.812805083333333,4.381834166666667,4.38361325,4.541518916666667,4.759288333333333,5.047211333333332,5.279021083333333,5.3290758333333335,5.181556166666666,4.9076735,4.502571416666666,4.490983333333333,4.671488166666666,4.9058944166666665,5.150927083333333,5.387929833333334,5.3568679999999995,5.031007249999999,4.796120166666666,4.633983166666666,4.491993083333333,4.607248833333333,4.879304333333333,5.1385215833333335,5.333980333333333,5.446206833333334,5.407307416666666,5.336721083333334,5.155206499999999,4.97417275,4.861994333333333,4.848146333333333,5.113758666666667,5.398748583333333,5.546220166666665,5.638924833333333,5.61897025,5.622528416666667,5.3263350833333325,5.108517583333334,4.944697666666666,4.873534333333333,5.043172333333333,5.613921499999999,5.851982083333333,5.856501916666667,5.632673999999999,4.9296956666666665,4.8421840000000005,4.901134166666666,5.042258749999999,5.482028916666667,5.700134916666666,5.611661583333333,5.451736416666666,5.140973833333333,4.8982010833333325,4.831557583333333,4.946044,5.4079325,5.38268875,5.351578833333334,5.487173833333333,4.903586416666666,4.686490166666666,4.60114225,4.845549833333333,5.560260499999999,5.455583083333333,5.34316425,5.222330833333333,4.77337675,4.531421416666666,4.548010166666667,4.764481333333333,5.2031936666666665,5.315372083333333,5.383938916666666,5.239352333333334,4.661775333333333,4.526949666666666,4.5319503333333335,4.695626,5.079908,5.300658583333333,5.36105125,5.161841999999999,4.893585083333333,4.6191735,4.3837575,4.467374416666666,4.624847333333333,5.08005225,5.234928666666666,5.389805083333333,5.219734333333333,4.837183333333333,4.587198083333333,4.498099666666667,4.532286916666666,5.004224833333333,5.219878583333333,5.272385583333333,5.190595833333333,4.711974333333333,4.580562583333333,4.61268225,4.580562583333333,5.028651166666667,5.148667166666667,5.190740083333333,5.195548416666667,4.834394499999999,4.630665416666666,4.4616525,4.385873166666666,4.87377475,5.135828916666666,5.168669833333333,5.157851083333333,5.147753583333333,4.895604583333333,4.602103916666667,4.40121175,4.372409833333333,4.615807666666666,4.8599267500000005,5.034421166666666,5.117220666666666,5.1167879166666665,4.926233666666667,4.565993333333333,4.4201084999999996,4.342694333333333,4.383084333333334,4.840597249999999,5.081975583333333,5.229928,5.2001644166666665,5.119336333333333,5.067213999999999,4.957103166666666,4.9192135,5.145205166666666,5.517851,5.874533166666667,6.018735083333333,6.164139083333333,6.085090083333333,5.72629225,5.322632666666666,5.033940333333333,4.712743666666666,4.727072499999999,5.062694166666666,5.326864,5.381678999999999,4.9664313333333325,4.757461166666666,4.591092833333333,4.422464583333333,4.4498240000000004,4.7445267499999995,4.929070583333333,4.840452999999999,4.773040166666666,4.571955666666667,4.454488083333334,4.33976125,4.4956955,4.696010666666667,4.935080999999999,5.0960159166666665,4.787465166666666,4.464297083333333,4.23532425,4.219360583333333,4.2872061666666665,4.605854416666666,4.82126775,4.889305666666666,4.727745666666666,4.540413,4.3320679166666665,4.243738833333333,4.553924416666667,4.7851090833333325,4.949554083333333,5.059136,5.0038401666666665,4.8881516666666665,4.73183275,4.4103475833333325,4.280955333333333,4.618548416666667,4.804678999999999,4.98023125,4.968018083333333,4.947246083333333,4.768520333333334,4.610903166666667,4.41505975,4.21541775,4.437322333333333,4.772559333333333,4.963931,5.134578749999999,5.060241916666667,4.8029960833333325,4.44910275,4.324855416666667,4.518775499999999,4.700338166666667,4.8984415,5.172612666666667,4.886276416666666,4.6537935,4.365822416666666,4.310622749999999,4.402461916666667,4.736833416666666,5.0299974999999995,5.075292,5.056491416666667,4.810064333333333,4.505408333333333,4.385007666666667,4.367793833333333,4.367264916666667,4.526949666666666,4.701396,4.96234425,5.094717666666666,5.030959166666666,4.851752583333333,4.667978083333333,4.350676166666666,4.2449889999999995,4.256288583333333,4.359908166666666,4.632636833333333,4.92195425,5.1266930833333335,5.105536416666666,4.715821,4.5598867499999995,4.3112959166666665,4.206570416666666,4.369524833333333,4.553203166666666,4.804438583333334,5.035142416666667,5.22185,5.147368916666666,4.929503333333333,4.603883,4.33283725,4.309853416666667,4.299419333333334,4.459825333333333,4.728515,5.017399666666667,5.1258756666666665,5.103613083333333,4.97374,4.754816583333334,4.27715675,4.253595916666667,4.407799166666666,4.767414416666667,5.225119666666666,5.127173916666666,5.017832416666667,4.7432285,4.268982583333333,4.267492,4.48718475,4.803188416666667,5.149147999999999,5.1725164999999995,5.01600525,4.7651545,4.386690583333333,4.281003416666667,4.436601083333334,4.74885425,5.323786666666666,5.372447,4.947342249999999,4.555943916666666,4.3676976666666665,4.351830166666667,4.470355583333332,4.6180195,4.817757666666666,5.128376,5.206030583333333,4.984510666666666,4.596670499999999,4.332164083333333,4.394047333333334,4.641628416666666,4.770972583333333,5.233341916666666,5.325806166666666,5.096737166666666,4.778521666666666,4.493483666666666,4.381064833333333,4.40409675,4.562194750000001,4.742266833333333,5.005523083333332,5.2159838333333335,5.1390505,5.030622583333334,4.789051916666666,4.586092166666666,4.469826666666667,4.50968775,4.54199975,5.09101525,5.174199416666666,5.1390505,4.989751749999999,4.583111,4.386305916666666,4.416886916666667,4.689327083333333,4.998551,5.093371333333333,5.115008833333333,4.957535916666667,4.883247166666666,4.795927833333333,4.51718875,4.560415666666667,4.659323083333333,4.896614333333333,5.093707916666666,5.273010666666667,5.2796942499999995,5.275511,4.7750596666666665,4.638551083333334,4.7036559166666665,4.854108666666666,5.335759416666666,5.495107583333333,5.539055749999999,5.493905499999999,5.276905416666667,5.070772166666667,5.005667333333333,4.996771916666667,5.112845083333333,5.296667666666666,5.457506416666667,5.710136249999999,5.8139000833333325,5.598631,5.340038833333334,5.136550166666667,4.976624999999999,4.88444925,5.0288435,5.338067416666667,5.668496083333333,5.765768666666667,5.662533750000001,5.567136416666666,5.429377666666666,5.168669833333333,4.955949166666666,4.947967333333333,5.07197425,5.240410166666667,5.4201456666666665,5.588870083333333,5.740765333333333,5.436494,5.1990585000000005,4.950131083333333,4.875649999999999,5.294888583333333,5.453323166666666,5.598102083333333,5.54540275,5.216176166666666,4.963594416666666,4.746882833333333,4.723850916666667,5.0288435,5.339365666666666,5.469575333333332,5.393699833333333,5.112797,4.752700916666666,4.6493217499999995,4.686394,4.820065666666666,4.991578916666666,5.252046333333333,5.427213916666666,5.468229,5.035286666666667,4.6589865,4.5447405000000005,4.588881,5.220888333333333,5.386391166666666,5.281521416666666,5.343693166666665,5.298206333333333,4.9763364999999995,4.7164460833333335,4.699857333333333,4.674084666666666,4.7397665,5.052115833333333,5.283348583333333,5.512177166666667,5.597284666666667,5.393555583333334,5.0553855,4.774001833333333,4.681441416666667,4.519352499999999,4.550750916666667,4.9295514166666665,5.2209364166666665,5.371052583333333,5.277193916666667,5.25949925,5.199875916666667,4.889257583333333,4.661775333333333,4.691538916666667,4.875601916666667,5.137800333333333,5.297965916666667,5.2491613333333325,4.983741333333333,4.7413532499999995,4.7146669999999995,4.850454333333333,4.947726916666666,5.169583416666667,5.329941333333333,5.341048583333333,4.970999249999999,4.677354333333333,4.583784166666667,4.771982333333333,4.913780083333333,4.9994165,5.146263,5.093371333333333,5.069570083333333,4.835452333333333,4.62422225,4.803428833333332,5.034709666666666,5.28055975,5.445822166666666,5.7424963333333325,5.615892916666667,5.5198705,5.425050166666666,5.628442666666666,5.81918925,6.124470333333334,6.274201833333333,6.2267435833333336,5.859194583333333,5.4846734999999995,4.9851357499999995,4.713272583333333,4.620856416666666,4.606287166666666,4.973788083333333,5.267817666666667,5.291859333333333,5.370090916666666,5.397450333333333,5.17496875,4.830115083333333,4.616528916666666,4.465114499999999,4.512524666666667,4.860311416666666,5.079234833333333,5.1980968333333335,5.1705931666666665,4.888872916666666,4.5934489166666665,4.3064395,4.45112225,4.885699416666666,5.114912666666666,5.332585916666667,5.266279,4.9237814166666665,4.784147416666666,4.4648259999999995,4.399144166666667,4.578783499999999,4.9394085,5.292676749999999,5.083995083333334,4.8225179166666665,4.732794416666667,4.486800083333333,4.65826525,4.77799275,4.977586666666666,5.144628166666666,5.291859333333333,5.335230500000001,5.059857249999999,4.747652166666666,4.613163083333333,4.667352999999999,4.6272515,4.91849225,5.228725916666666,5.3888915,5.340327333333334,5.133520916666666,5.030285999999999,4.83598125,4.66172725,4.541759333333332,4.649514083333333,4.875794249999999,5.05466425,5.269404416666666,5.3918245833333325,5.336817249999999,4.966912166666666,4.54026875,4.552914666666666,4.500263416666666,4.567772416666666,4.78433975,4.98051975,5.255796833333333,5.350617166666666,5.182614,4.93955275,4.451314583333333,4.488483,4.613740083333333,4.84348225,5.237092416666667,5.315083583333333,5.198433416666666,4.9753748333333325,4.677787083333333,4.699424583333333,4.669035916666666,4.7576535,5.2030494166666665,5.237909833333333,5.052885166666667,5.008937,4.5301712499999995,4.440063083333333,4.5995555,4.929359083333333,5.202712833333333,5.27507825,5.328210333333334,4.99148275,4.710676083333333,4.589265666666666,4.428138416666666,4.516371333333333,4.705963916666666,5.16515975,5.27103925,5.184152666666667,5.012014333333333,4.7905425,4.670863083333333,4.602200083333333,4.620231333333334,4.80886225,5.25805675,5.270943083333333,5.187133833333333,5.086880083333333,4.767799083333332,4.4717019166666665,4.486367333333333,4.661390666666667,4.876707833333334,5.13342475,5.353934916666667,5.3992775,5.3294605,5.00475375,4.641628416666666,4.52368,4.532912,4.502571416666666,5.102266749999999,5.238438749999999,5.3014279166666665,5.2890705,5.089524666666667,4.873870916666666,4.666535583333333,4.583639916666667,4.6731229999999995,5.0340365,5.352492416666666,5.4696715,5.245603166666666,4.667978083333333,4.655043666666667,4.53190225,4.59421825,4.848867583333333,5.036536833333333,5.227235333333333,5.337153833333333,5.301379833333333,5.0467785833333325,4.703319333333333,4.53421025,4.436168333333334,4.5562805,4.837616083333333,5.136934833333333,5.260268583333334,5.361003166666666,5.333691833333333,5.057116499999999,4.823046833333334,4.605950583333334,4.487521333333333,4.605662083333333,4.849636916666666,5.040335416666666,5.245122333333333,5.318016666666666,5.253536916666666,5.020573166666666,4.74871,4.558059583333333,4.575802333333333,4.5974398333333335,4.79097525,4.993742666666667,5.300898999999999,5.353742583333332,5.25834525,5.072166583333333,4.79097525,4.620327499999999,4.566474166666667,4.608402833333333,4.76558725,5.0859665000000005,5.307246,5.341192833333333,5.021775249999999,4.784484,4.668891666666666,4.671440083333333,5.064857916666667,5.317006916666666,5.566511333333334,5.667967166666667,5.345135666666667,5.1453975,4.866898833333333,4.783281916666666,5.228245083333333,5.5919954999999995,5.685998416666667,5.798176833333333,5.584302166666666,5.281040583333333,4.97330725,4.994463916666667,5.332730166666667,5.523140166666667,5.813611583333333,5.9332910000000005,5.485298583333333,5.2105985,5.04052775,4.885987916666666,4.968498916666666,5.35470425,5.5778109166666665,5.649935916666667,5.693787916666667,5.466690333333333,5.249449833333332,5.043028083333333,4.9730187500000005,5.073897583333333,5.390333999999999,5.630991083333334,5.679699500000001,5.668688416666666,5.386198833333334,4.991867416666666,4.773472916666667,4.78260875,4.913491583333333,5.214108583333332,5.463372583333332,5.555019416666666,5.573868083333334,5.410577083333333,5.1674196666666665,4.8750729999999995,4.65307225,4.637781749999999,4.791167583333333,5.018361333333333,5.280223166666667,5.338981,5.344654833333333,5.491405166666667,5.219349666666667,4.953833499999999,4.823816166666666,4.6374932499999995,4.678316,4.9163285,5.153138916666666,5.367446333333333,5.445245166666666,5.312198583333333,5.048942333333334,4.692740999999999,4.531229083333333,4.624606916666666,4.71365725,4.98657825,5.0336999166666665,5.163813416666667,5.461737749999998,5.439571333333333,5.172997333333333,4.915222583333333,4.639031916666666,4.483145749999999,4.598593833333333,4.88069875,5.170545083333333,5.314266166666666,5.30854425,5.226465999999999,5.076542166666666,4.811603,4.584890083333334,4.4496797500000005,4.773617166666667,5.154437166666666,5.346433916666666,5.162611333333333,5.003743999999999,4.8166036666666665,4.592102583333333,4.4429,4.697212749999999,5.011629666666667,5.263586333333333,5.304409083333333,5.132463083333333,5.009610166666666,4.792081166666667,4.490214,4.5391147499999995,4.67499825,4.809920083333333,5.084427833333334,5.447697416666667,5.346145416666666,5.11178725,4.847713583333333,4.606287166666666,4.631338583333333,5.023602416666666,5.285368083333333,5.361435916666665,5.3052265,5.2429105,5.171025916666666,5.1726607499999995,5.278973,5.4835195,6.005367916666667,6.358636166666666,6.27675025,6.222752666666666,5.993395166666667,5.5469895,4.918828833333333,4.940995249999999,5.054760416666666,5.1830948333333335,5.5506919166666675,5.43000275,5.256998916666666,5.09361175,4.56421425,4.643311333333333,4.9437359999999995,5.178623083333333,5.266279,5.2166570000000005,5.186556833333333,5.01571675,4.768087583333332,4.6445615,4.615807666666666,4.598930416666666,4.779675666666666,5.027641416666666,5.266375166666666,5.329220083333333,5.224061833333333,5.178190333333332,5.0079753333333334,4.776934916666667,4.647206083333333,4.630376916666666,4.763279249999999,4.9960025833333335,5.242958583333333,5.268106166666667,5.1539563333333325,4.949842583333333,4.435639416666667,4.4466505,4.632636833333333,4.824345083333333,5.2933018333333335,5.330951083333333,5.28921475,5.162226666666666,4.550462416666667,4.521564333333333,4.818959749999999,5.091832666666667,5.39163225,5.59329375,5.555933,5.361003166666666,5.1586685,4.73760275,4.6084509166666665,4.74683475,4.990184499999999,5.4842407500000006,5.583340499999999,5.5167450833333325,5.279357666666667,4.625664749999999,4.555318833333333,4.702934666666667,5.012879833333334,5.313977666666666,5.3607146666666665,5.527563833333333,5.248007333333333,4.6969242499999995,4.58715,4.6530241666666665,4.875601916666667,5.37778425,5.386102666666666,5.327825666666667,5.088226416666667,4.888584416666666,4.741641749999999,4.6431189999999996,4.675911833333333,4.863052166666667,5.172131833333333,5.500300583333332,5.54453725,5.310707999999999,4.96609475,4.708512333333333,4.57084975,4.63056925,4.708993166666667,5.129049166666666,5.394613416666666,5.416058583333332,5.3298932500000005,5.008263833333333,4.802419083333333,4.7097144166666665,4.695385583333333,5.2105985,5.272385583333333,5.425482916666667,5.463180250000001,4.863581083333333,4.6434074999999995,4.735775583333333,4.788282583333333,5.1355885,5.457073666666666,5.581080583333333,5.475922333333333,5.272049,5.045288,4.805640666666666,4.592727666666666,4.704617583333333,4.9496502499999995,5.2168012500000005,5.524246083333334,5.493088083333333,5.482413583333333,5.3448952499999995,5.1407815,4.861705833333333,4.689279,4.792610083333333,4.950563833333333,5.184729666666667,5.4401002499999995,5.608391916666666,5.605170333333333,5.4530346666666665,5.161168833333333,4.824345083333333,4.668314666666666,4.831846083333333,5.02610275,5.250892333333334,5.5094845,5.701721666666665,5.601996833333334,5.376293666666666,4.969124,4.729861333333333,4.8387700833333325,4.7852533333333325,5.047932583333333,5.374706916666667,5.593149499999999,5.696143999999999,5.410865583333333,5.129001083333333,4.824248916666666,4.728082249999999,5.002397666666666,5.371052583333333,5.646089249999999,5.658783249999999,5.4835675833333335,5.251661666666666,4.926954916666666,4.812131916666667,5.165688666666666,5.517995249999999,5.686719666666666,5.647483666666666,5.426781166666667,5.077936583333333,4.797995416666666,4.8592535833333335,5.309986749999999,5.370619833333333,5.512994583333334,5.634356916666666,5.547422249999999,5.280800166666666,4.953112249999999,4.909500666666666,5.175113,5.381053916666667,5.479624749999999,5.683401916666665,5.470729333333332,5.2092521666666665,5.012639416666667,5.01456275,5.354848499999999,5.675420083333333,5.795724583333333,5.84371175,5.825440083333333,5.4886644166666665,5.374947333333332,5.380573083333332,5.28517575,5.445726,5.75139175,6.097159,6.1709188333333325,6.1112955,5.90573925,5.623393916666667,5.40403775,5.580840166666666,5.73581275,5.9324255,6.144761499999999,6.13076925,5.86217575,5.560645166666667,5.327681416666667,5.34749175,5.403268416666666,5.666043833333333,5.8049085,5.945456083333333,6.05979825,5.740236416666666,5.488616333333333,5.3712930000000005,5.2993603333333335,5.457025583333333,5.607574500000001,5.739226666666667,5.925309166666666,6.006233416666666,5.98017225,5.678593583333332,5.42856025,5.207425,5.13602125,5.1667464999999995,5.346674333333333,5.657821583333333,5.972767416666666,6.02142775,5.834383583333332,5.686383083333332,5.395575083333333,5.062405666666666,5.145060916666666,5.14669575,5.4900588333333324,5.780770666666666,5.860060083333333,5.785578999999999,5.4840965,5.190884333333333,5.01889025,5.050144416666666,5.126404583333334,5.210069583333333,5.456063916666666,5.698259666666666,5.8396246666666665,5.650368666666666,5.517033583333333,5.300273916666666,5.073464833333333,4.95109275,5.06476175,5.381005833333333,5.5166008333333325,5.66541875,5.6110365,5.489097166666666,5.277819,4.954939416666666,4.979461916666667,5.141454666666667,5.32296925,5.7306678333333325,5.657292666666666,5.560645166666667,5.2249273333333335,4.810785583333333,4.846751916666666,5.134626833333333,5.390045499999999,5.548720499999999,5.5915627500000005,5.477845666666667,5.15448525,4.944938083333333,5.025621916666666,5.16717925,5.437840333333333,5.576464583333333,5.547566499999999,5.633491416666666,5.422165166666666,5.1792481666666665,4.856705166666666,4.839202833333332,5.0542315,5.39278625,5.768894083333333,5.653446,5.497511749999998,5.205165083333333,4.629174833333333,4.677739,5.044326333333333,5.30883275,5.515783416666667,5.59113,5.516648916666667,5.469046416666667,5.525880916666666,5.523140166666667,5.56242425,5.7541805833333335,6.046142583333332,6.370993583333333,6.5097620833333325,6.4251354166666665,6.404171083333334,6.2000573333333335,5.363311166666667,5.257720166666666,5.108661833333334,5.169006416666666,5.705953,5.8155349166666666,5.745862166666666,5.458612333333334,5.220503666666667,4.9094045,4.767174,4.844251583333333,4.983452833333333,5.244352999999999,5.497559833333333,5.560356666666666,5.541796499999999,5.143137583333333,4.92483925,4.944793833333333,4.9600843333333335,4.890988583333333,5.003359333333333,5.544441083333332,5.6110365,5.446351083333333,5.215647249999999,5.054279583333333,4.890940499999999,4.826508833333333,4.819296333333333,4.9683546666666665,5.404182,5.515014083333333,5.533285749999998,5.489529916666666,4.8078525,4.6936065000000005,4.704858,5.012062416666667,5.475056833333333,5.656330999999999,5.650368666666666,5.4344745,5.143426083333333,4.934504,4.7977549999999995,5.0346135,5.254979416666667,5.449139916666667,5.5599239166666665,5.731437166666667,5.8135635,5.577426249999999,5.28113675,4.964604166666667,4.801168916666666,4.836317833333333,5.335567083333333,5.578676416666667,5.686960083333333,5.6460411666666666,5.242525833333333,5.015043583333333,4.871707166666666,4.880025583333333,5.36653275,5.537517083333333,5.641136666666667,5.572377500000001,5.2307935,4.889690333333333,4.797418416666666,5.004705666666666,5.280607833333333,5.515158333333333,5.613007916666667,5.536988166666666,5.191509416666666,4.882958666666666,4.850213916666666,4.940322083333333,5.176218916666666,5.37864975,5.5618472500000005,5.712059583333333,5.678834000000001,5.1979525833333335,4.8625713333333325,4.874111333333333,5.085197166666666,5.176844,5.287724166666666,5.588196916666667,5.6270482500000005,5.569203999999999,5.5048685,5.183575666666666,5.049663583333333,4.9892709166666664,4.8078044166666665,4.908827499999999,5.34402975,5.5837251666666665,5.599015666666666,5.5527595000000005,5.389372333333333,5.22430225,4.980279333333333,4.851079416666666,4.916713166666667,5.156697083333333,5.40259525,5.585744666666667,5.647772166666666,5.625894250000001,5.441254249999999,5.21708975,4.991627,4.928253166666666,5.1067385,5.403556916666666,5.63599175,5.733985583333332,5.439571333333333,5.219638166666667,4.918396083333334,4.917915249999999,5.117605333333333,5.3259985,5.690614416666666,5.784232666666667,5.480538333333333,5.158331916666666,4.913106916666666,4.862186666666667,4.896422,5.07889825,5.294215416666666,5.622865,5.757786833333333,5.585408083333333,5.30263,4.92224275,4.870553166666666,5.118374666666666,5.3696581666666665,5.623249666666666,5.617768166666667,5.642531083333332,5.530593083333333,5.229831833333333,4.971912833333334,4.966864083333333,4.8886325,4.9659505,5.291474666666667,5.5709349999999995,5.676525999999999,5.605218416666666,5.543431333333333,5.254642833333333,5.000041583333333,4.913251166666666,4.863052166666667,5.0397584166666665,5.339606083333333,5.613007916666667,5.765576333333333,5.739130499999999,5.516071916666667,5.223677166666667,5.066973583333334,4.934455916666667,5.15910125,5.46231475,5.709511166666666,5.702635249999999,5.4893375833333335,5.325613833333333,5.127991333333333,5.137896499999999,5.29931225,5.417741499999999,5.714079083333332,6.106967999999999,5.925212999999999,5.454429083333333,5.150975166666666,5.204588083333333,5.302293416666666,5.588341166666666,5.87342725,6.074319416666667,6.219338749999999,6.024505083333334,5.636376416666667,5.455294583333333,5.3437893333333335,5.410625166666666,5.497511749999998,5.671958083333332,6.0057045,6.193133333333333,5.977720000000001,5.759950583333333,5.534199333333333,5.400383416666666,5.368504166666667,5.483471416666666,5.74879525,6.035371916666666,6.092446833333333,6.074655999999998,5.954399583333333,5.655850166666666,5.396344416666666,5.283925583333333,5.285656583333333,5.373504833333333,5.604016333333333,5.892372083333334,5.9813262499999995,6.058548083333332,5.850106833333332,5.418510833333333,5.232620666666667,5.202424333333333,5.200501,5.3115735,5.59877525,5.855011333333334,5.961179333333334,5.969978583333333,5.704318166666667,5.423607666666666,5.042210666666667,5.015091666666667,5.1833833333333335,5.5302565,5.917471583333334,5.8493375,5.645560333333333,5.4332243333333325,4.987011,5.003599749999999,5.260989833333333,5.512369499999999,5.83823025,5.815775333333332,5.625894250000001,5.365426833333333,4.96984525,4.969797166666667,5.255412166666667,5.580118916666667,5.638107416666666,5.713694416666667,5.641280916666666,5.339173333333332,4.8346349166666664,4.9030575,5.198193,5.4453413333333325,5.76235475,5.736630166666665,5.423703833333334,5.318257083333333,5.091928833333333,5.037450416666666,5.14640725,5.426492666666667,5.700423416666666,5.877081583333332,5.7524015,5.56473225,5.333787999999999,5.059136,4.966912166666666,4.994704333333333,5.142416333333332,5.3733605833333336,5.729802333333333,5.801061833333333,5.655561666666666,5.563434,5.0613478333333335,4.90983725,4.836894833333333,5.021390583333333,5.640800083333333,5.53732475,5.507993916666667,5.430964416666666,5.070291333333333,4.947678833333333,4.959074583333333,5.178382666666667,5.656138666666666,5.805774,5.885015333333333,5.892372083333334,5.895689833333333,5.8083705,5.649935916666667,5.798224916666666,6.107256499999999,6.378686916666666,6.552748583333333,6.57448225,6.516734166666667,6.260690416666666,5.778078000000001,5.458852749999999,5.304601416666666,5.225504333333333,5.443898833333333,5.788704416666666,5.971517249999999,5.996135916666667,5.824286083333333,5.579397666666666,5.446639583333333,5.237525166666667,5.011437333333332,4.94791925,5.074041833333333,5.345087583333332,5.514821749999999,5.6462335,5.762595166666666,5.574348916666666,4.9940792499999995,4.8503100833333335,4.937148583333333,5.039037166666667,5.284935333333332,5.521409166666666,5.7810110833333335,5.777885666666666,5.5055897499999995,5.349222749999999,5.175305333333333,5.0009551666666665,4.877717583333333,4.935657999999999,5.365907666666666,5.680613083333333,5.817410166666666,5.754949916666665,5.282098416666666,5.0230735,4.88675725,4.88877675,5.318401333333333,5.651618833333333,5.873186833333333,5.8048123333333335,5.3109965,5.142224,5.09678525,5.102314833333334,5.254210083333333,5.498377250000001,5.798176833333333,5.889679416666667,5.942571083333333,5.349703583333333,5.086014583333333,4.994127333333333,5.045047583333333,5.48106725,5.7697115,5.96718975,5.991808416666667,5.4823655,5.177036333333333,5.07341675,5.066636999999999,5.274356999999999,5.511984833333333,5.748891416666667,5.8301041666666675,5.792647249999999,5.423848083333333,5.109335,5.0078310833333335,5.040672,5.230553083333333,5.519389666666666,5.710184333333333,5.821833833333333,5.824718833333333,5.577330083333333,5.283011999999999,5.142464416666667,5.087409,5.039566083333333,5.151263666666666,5.429233416666666,5.714608000000001,5.829094416666667,5.614017666666666,5.43086825,5.21362775,5.077071083333333,5.258681833333333,5.39278625,5.7218685833333325,5.902758083333333,5.677776166666667,5.395238499999999,5.1240485,4.970374166666667,5.18881675,5.589735583333333,5.832123666666667,5.890641083333333,5.889631333333334,5.701288916666666,5.492847666666666,5.12621225,5.063752,5.1332805,5.355665916666666,5.791156666666666,5.8998730833333335,5.6790744166666665,5.278780666666666,5.012735583333334,5.056251,5.2700295,5.52318825,5.760864166666667,5.850251083333333,5.796061166666667,5.615219749999999,5.398508166666667,5.1180380833333325,4.953737333333334,4.961671083333333,5.210935083333333,5.555884916666666,5.634356916666666,5.7535074166666655,5.8019273333333325,5.654071083333332,5.4182223333333335,5.1884801666666664,4.980664,5.024515999999999,5.209540666666666,5.368456083333334,5.529054416666667,5.688114083333333,5.745669833333333,5.659216,5.4742875,5.2084347499999994,4.9924925,5.118759333333332,5.4528904166666665,5.706049166666666,5.77504875,5.652965166666667,5.3948538333333325,5.2169455000000005,5.100776166666667,5.062838416666666,5.20208775,5.585167666666666,5.773798583333334,5.656282916666666,5.644550583333333,5.4212035,5.14006025,5.116739833333333,5.307246,5.656667583333333,5.8352010000000005,5.819718166666665,5.703067999999999,5.451832583333332,5.265894333333333,5.250363416666667,5.518331833333332,5.8908815,6.114805583333333,6.256651416666666,6.281606666666666,6.071867166666666,5.795147583333333,5.488904833333333,5.485587083333333,5.59185125,5.729802333333333,5.905306500000001,6.132115583333332,6.318823166666667,6.237706583333332,6.0543648333333335,5.905979666666666,5.764999333333333,5.624596,5.65416725,5.782742083333333,5.991231416666667,6.266604666666666,6.3407972500000005,6.244967166666666,6.005223666666666,5.736293583333334,5.506359083333333,5.456929416666667,5.5216976666666655,5.733504750000001,5.989596583333333,6.16827425,6.143895999999999,5.999309416666666,5.549682166666667,5.127895166666667,5.319122583333333,5.5919954999999995,5.883188166666667,6.089658,5.961323583333333,5.741678916666667,5.541796499999999,5.466257583333333,5.3437893333333335,5.291138083333332,5.441783166666666,5.766105249999999,5.958871333333332,5.954832333333333,5.79784025,5.47443175,5.117509166666666,5.082216,5.308640416666667,5.71936825,5.8787645,5.907566416666666,5.744660083333334,5.437647999999999,5.02033275,5.02841075,5.218003333333333,5.391199499999999,5.649839749999999,6.0057045,5.923962833333333,5.795147583333333,5.519822416666666,5.07918675,5.034805833333333,5.27103925,5.597236583333333,5.793849333333333,5.723551499999999,5.491501333333332,5.3085923333333325,5.154437166666666,4.987011,4.936042666666666,5.14107,5.474672166666665,5.771057833333333,5.826449833333334,5.738745833333333,5.57107925,5.097169916666666,4.916232333333332,4.917386333333334,5.156023916666666,5.6460411666666666,5.800821416666666,5.696047833333332,5.534247416666666,5.067887166666666,4.9654696666666664,4.898633833333332,5.056202916666666,5.631231499999999,5.774038999999999,5.768605583333333,5.659889166666667,5.16544825,5.029372416666667,4.937581333333333,5.130155083333333,5.549489833333333,5.6321450833333335,5.674025666666666,5.443418,5.177324833333333,4.880891083333333,4.7343330833333335,4.882574,5.274164666666667,5.636232166666666,6.035708499999999,6.320265666666667,6.601024249999999,6.629489583333334,6.377917583333333,6.028399833333332,5.845586999999999,5.7463429999999995,5.875494833333334,6.088311666666666,6.236792999999999,6.135721833333332,6.0516240833333335,5.861166,5.213579666666667,5.06533875,5.130107,5.2100215,5.496069249999999,5.6897969999999995,5.689604666666667,5.649935916666667,5.6646975,5.389805083333333,5.056251,5.0129279166666665,4.959026499999999,5.078513583333333,5.265942416666666,5.440629166666667,5.597236583333333,5.6357513333333324,5.0953427499999995,4.959122666666667,4.880843,4.95657425,5.012254749999999,5.270943083333333,5.52318825,5.619402999999999,5.578243666666666,5.194346333333333,4.989751749999999,4.836942916666667,4.76558725,5.1707855,5.482557833333332,5.584446416666665,5.667726749999999,5.3309991666666665,5.033171,4.878486916666666,4.881371916666667,5.040623916666666,5.248632416666666,5.523909499999999,5.707684,5.710040083333333,5.3727355,5.166265666666667,5.102747583333334,5.027016333333333,5.498088750000001,5.5705022500000005,5.7426405833333325,5.758556166666668,5.241660333333333,5.0166303333333335,4.97388425,5.0109565,5.488375916666667,5.67090025,5.693403249999999,5.660754666666667,5.585071499999999,5.368456083333334,5.0946215,4.931234333333333,4.8061215,4.993021416666667,5.17468025,5.374562666666666,5.563914833333333,5.323979,5.1466476666666665,5.2119929166666665,5.0742822499999996,5.042114499999999,5.2944077499999995,5.612094333333332,5.767307333333332,5.70609725,5.425915666666666,5.196702416666667,5.081687083333333,4.945418916666666,5.206848,5.333451416666666,5.6376746666666655,5.727109666666666,5.762691333333334,5.613632999999999,5.204491916666666,4.95542025,4.869062583333333,4.858820833333334,5.0240832499999994,5.39797925,5.621855249999999,5.749708833333333,5.798176833333333,5.547614583333334,5.274693583333334,5.012014333333333,4.909596833333333,4.936042666666666,5.126308416666666,5.33883675,5.515302583333333,5.716290916666666,5.659167916666667,5.400287249999999,5.123134916666666,4.975711416666667,4.939023833333333,4.976769249999999,5.09072675,5.28084825,5.538959583333334,5.834912500000001,5.768942166666666,5.563770583333333,5.404133916666666,5.094573416666666,4.871851416666666,4.949409833333333,5.099429833333333,5.4639014999999995,5.492463,5.543671750000001,5.685325249999999,5.565790083333333,5.441638916666666,5.116162833333333,4.9317632499999995,5.061972916666666,5.40230675,5.711386416666666,5.656042499999999,5.479480499999998,5.260509,5.024564083333333,4.981721833333333,5.046538166666667,5.267481083333333,5.612815583333333,5.829575249999999,5.6341165,5.530737333333334,5.10688275,5.061684416666666,5.222090416666666,5.350857583333333,5.607574500000001,5.664120499999999,5.533429999999999,5.340567749999999,5.016389916666666,4.7166865,4.90233625,5.16285175,5.381919416666666,5.57223325,5.642290666666667,5.349847833333333,5.065531083333332,4.965229249999999,5.048076833333334,5.095919749999999,5.43404175,5.660225749999999,5.693739833333333,5.508282416666667,5.296234916666666,5.122125166666666,5.0692335,4.915463,5.005426916666666,5.281329083333333,5.518043333333332,5.7541805833333335,5.824045666666667,5.619691499999999,5.347107083333333,5.151648333333333,5.075532416666666,5.01023525,5.196413916666667,5.540450166666667,5.865685833333333,5.817506333333334,5.733600916666666,5.492703416666665,5.060049583333333,5.101785916666667,5.273972333333333,5.627000166666666,5.931608083333333,6.059028916666666,6.0685494166666665,6.013734416666666,5.831738999999999,5.4698157499999995,5.334316916666666,5.34604925,5.661283583333333,5.928867333333333,6.110478083333333,6.197412749999999,6.08547475,5.834527833333333,5.771490583333332,5.593101416666666,5.531843249999999,5.588870083333333,5.958582833333332,6.1412995,6.1395685,5.912999833333333,5.710520916666666,5.517177833333332,5.391487999999999,5.368888833333333,5.580263166666666,5.857319333333333,6.333680916666665,6.2329463333333335,5.922808833333332,5.469863833333332,5.250074916666667,5.303110833333333,5.39769075,5.518428,5.994837666666666,5.956515249999999,5.7298985,5.424473166666666,5.1234715,4.965662,5.0076868333333335,5.111643,5.434282166666667,5.71907975,5.713405916666667,5.868282333333333,5.711145999999999,5.204491916666666,5.113325916666667,5.020284666666666,5.05322175,5.589399,5.76408575,5.7837518333333335,5.58146525,5.091928833333333,5.156456666666666,5.001436,5.015332083333333,5.643733166666666,5.690854833333334,5.731437166666667,5.600458166666666,5.033748,4.8931042499999995,4.897672166666667,5.043508916666666,5.245122333333333,5.466209500000001,5.7537959166666655,5.696143999999999,5.497752166666667,4.988261166666667,4.8776695,4.808958416666667,4.911327833333333,5.426011833333333,5.6086323333333326,5.591658916666666,5.43981175,5.173910916666666,4.949890666666666,4.857570666666667,4.7058677499999995,4.77251125,5.0865435,5.4217805,5.591033833333332,5.745189,5.6029585,5.413894833333333,4.9976855,4.7790505833333325,4.874736416666666,5.021679083333333,5.233293833333334,5.444956666666666,5.594640083333334,5.585648499999999,5.44529325,5.045288,4.71654225,4.760105749999999,4.893344666666667,5.256373833333333,5.4385135,5.732927750000001,5.599688833333333,5.046201583333333,4.822469833333334,4.837087166666667,4.814247583333333,5.172756916666667,5.600458166666666,5.997145666666666,6.281847083333333,6.061865833333333,5.88179375,5.7255709999999995,5.60627625,5.867032166666667,6.191209999999999,6.274923083333333,6.246553916666667,6.106631416666666,5.54973025,5.177998,4.8848339166666666,4.7936198333333335,5.235746083333333,5.571223499999999,5.71792575,5.571511999999999,5.257575916666666,4.937196666666666,4.682980083333333,4.60085375,4.782560666666666,5.050481,5.241948833333333,5.404518583333334,5.429618083333334,5.192951916666666,4.9228197499999995,4.751017999999999,4.645475083333333,4.7562109999999995,5.075340083333333,5.344366333333333,5.467315416666666,5.402547166666666,5.352444333333334,5.179296249999999,4.782945333333333,4.581283833333333,4.709281666666667,4.999128,5.2521425,5.518908833333332,5.595649833333333,5.5078015833333325,5.3645613333333335,5.181700416666667,4.8897865,4.646196333333333,4.832375,5.095438916666667,5.2856084999999995,5.521120666666666,5.560837499999999,5.31373725,5.077936583333333,4.806313833333333,4.999128,5.3374904166666655,5.557327416666666,5.62877925,5.405913000000001,5.254402416666667,5.0398065,4.953689249999999,4.784580166666666,4.932773,5.2850315,5.61868175,5.687537083333333,5.590024083333333,5.465247833333334,5.263153583333333,4.94791925,4.8470885,4.9105585,5.021246333333333,5.254690916666667,5.4947229166666665,5.755526916666667,5.6067089999999995,5.4004315,5.330374083333333,5.156264333333334,4.805833,4.709185499999999,4.831846083333333,5.035863666666667,5.320565083333333,5.590408750000001,5.482269333333332,5.18622025,4.9982625,4.8394432499999995,4.719763833333333,4.889882666666666,5.177180583333333,5.4747683333333335,5.558914166666667,5.6534940833333325,5.505637833333332,5.268298499999999,4.9734515,4.845069,4.840597249999999,4.894450583333334,5.139579416666666,5.407595916666666,5.707587833333332,5.5392,5.206799916666666,4.9838375,4.724043249999999,4.905269333333333,5.2766649999999995,5.594928583333334,5.761537333333333,5.5810325,5.276328416666667,4.934696333333332,4.851800666666667,5.051538833333333,5.205597833333333,5.4728449999999995,5.6116135,5.3144585,5.105199833333333,4.99105,4.8335289999999995,5.013793416666666,5.215118333333334,5.470344666666667,5.708068666666666,5.465872916666666,5.198818083333333,5.041200916666666,4.93435975,5.058318583333333,5.105921083333333,5.29123425,5.617672,5.574012333333333,5.412067666666666,5.1298665833333335,4.9421973333333336,5.14107,5.387304749999999,5.523861416666667,5.654071083333332,5.577378166666667,5.5804555,5.4307240000000006,5.136550166666667,4.8915175,4.896373916666666,5.158908916666666,5.41846275,5.601564083333333,5.5889662499999995,5.440532999999999,5.263634416666666,4.9140205,4.9503234166666665,5.3987004999999995,5.636232166666666,5.863714416666666,5.774375583333334,5.563241666666666,5.335567083333333,4.9027209166666665,5.11524925,5.371004500000001,5.497992583333333,5.801302249999999,5.770961666666666,5.542758166666666,5.373745249999999,5.18102725,5.040479666666666,5.257239333333334,5.407018916666666,5.5372285833333335,5.662197166666666,5.8811686666666665,5.94526375,5.717877666666666,5.456881333333333,5.2587779999999995,5.118518916666667,5.145445583333333,5.424473166666666,5.700567666666665,5.868426583333332,5.9260785,5.784424999999999,5.547085666666667,5.374418416666667,5.232620666666667,5.290993833333332,5.42019375,5.603583583333333,5.919971916666667,6.201499833333333,6.243765083333333,6.025274416666666,5.7605275833333325,5.493088083333333,5.339365666666666,5.351338416666667,5.638395916666666,6.090667749999999,6.377917583333333,6.3618577499999995,6.209914416666667,5.967334,5.589399,5.626182750000001,5.772836916666666,5.867512999999999,6.309639249999999,6.420230916666667,6.322285166666666,6.0674434999999995,5.811736333333333,5.631664249999999,5.536988166666666,5.924155166666666,6.415470666666667,6.455476,6.251458416666666,6.0476331666666665,5.583388583333334,5.705279833333333,5.730908249999999,5.84630825,6.243188083333333,6.262757999999999,6.1944315833333325,6.000126833333333,5.451592166666667,5.387208583333333,5.577474333333334,5.797455583333332,6.125960916666666,6.102255833333333,6.058596166666667,5.735428083333332,5.313496833333333,5.204443833333333,5.3733605833333336,5.5344878333333325,5.717685333333333,5.995414666666666,6.088696333333334,5.899007583333334,5.674266083333333,5.197471749999999,5.058895583333333,5.212618,5.51135975,5.604064416666667,5.810870833333333,5.820006666666667,5.755767333333334,5.657485,5.407788249999999,5.19400975,4.963305916666666,5.110440916666667,5.53732475,5.791445166666666,5.840105499999999,5.71157875,5.115489666666666,5.047067083333332,5.07659025,5.125154416666667,5.336913416666666,5.6219995,5.919683416666667,5.987192416666666,5.7762027499999995,5.200741416666666,5.0138415,4.985712749999999,5.085437583333333,5.26613475,5.461112666666666,5.569011666666667,5.676910666666667,5.7664418333333325,5.5764165,5.193913583333333,4.925320083333333,4.868149,4.86021525,5.049086583333334,5.411731083333333,5.795387999999999,5.845971666666666,5.631327666666667,5.071301083333333,4.846607666666666,4.821412,5.020573166666666,5.258297166666667,5.332874416666667,5.617287333333333,5.829527166666668,5.747689333333334,5.45337125,5.1844892499999995,4.96407525,4.881035333333333,4.908394749999999,5.170352749999999,5.403556916666666,5.493809333333334,5.531266249999999,5.609209333333332,5.394180666666667,5.060963166666666,4.863629166666667,4.999801166666667,5.300658583333333,5.690422083333332,6.002434833333333,6.310023916666666,6.484614499999999,6.47321875,6.305792583333333,5.902950416666666,5.58838925,5.574589333333333,5.665370666666665,5.778558833333332,5.828661666666665,5.817842916666666,5.443466083333333,5.21708975,4.926281749999999,4.903249833333333,5.151071333333333,5.452601916666667,5.513860083333333,5.504099166666667,5.438850083333333,5.196894749999999,4.931282416666666,4.646629083333333,4.592246833333333,4.870505083333333,5.199347,5.436734416666667,5.547566499999999,5.4552465,5.302053,5.0865435,4.6636025,4.635137166666666,4.952967999999999,5.165640583333333,5.336865333333333,5.455727333333333,5.383073416666666,5.180979166666666,4.927243416666666,4.771261083333333,4.664708416666667,4.685865083333333,4.8840164999999995,5.18939375,5.506887999999999,5.53674775,5.491501333333332,5.327729499999999,4.97821175,4.596574333333333,4.447035166666667,4.623404833333333,4.976913499999999,5.306284333333333,5.496069249999999,5.403076083333333,5.484769666666666,5.4268773333333336,5.025621916666666,4.7771272499999995,4.736977666666666,4.961430666666667,5.151696416666666,5.271520083333333,5.4096635,5.2071365,5.022448416666666,4.755826333333333,4.614268999999999,4.633935083333333,4.70846425,4.831172916666667,5.128135583333333,5.177998,5.122654083333333,4.901230333333333,4.7230335,4.374910166666667,4.526084166666666,4.867043083333333,4.955324083333333,5.421684333333332,5.232428333333333,4.998310583333333,4.7720304166666665,4.488723416666667,4.447852583333333,4.616048083333333,4.91243375,5.143233749999999,5.334076499999999,5.184729666666667,4.930032249999999,4.600805666666667,4.3824111666666665,4.600805666666667,4.930272666666666,5.0940925833333335,5.195308,5.309361666666667,5.387064333333334,5.038171666666666,4.622250833333333,4.328846333333333,4.646340583333333,4.8465115,5.026583583333333,5.2030975,5.365715333333333,5.304024416666667,4.950275333333333,4.788282583333333,4.572628833333333,4.534883416666666,4.6405225,4.923541,5.239352333333334,5.277290083333333,5.257095083333334,5.263634416666666,4.9988875833333335,4.432754416666666,4.4496797500000005,4.6797585,4.945082333333333,5.2036745,5.2883492500000004,5.2244465,4.99552175,4.585755583333333,4.452660916666667,4.57142675,4.866418,5.238631083333333,5.365571083333333,5.145349416666666,4.88041025,4.5274305,4.524353166666667,4.662063833333333,4.823142999999999,5.105296,5.119576749999999,4.846222999999999,4.7028384999999995,4.405779666666667,4.42804225,4.578639249999999,4.958737999999999,5.178767333333333,5.23584225,5.26267275,5.291041916666667,4.7519315833333335,4.36212,4.225707583333333,4.27975325,4.535797,4.864638916666666,5.1022186666666665,5.208050083333333,5.122606,5.039902666666666,4.762894583333333,4.415540583333333,4.281965083333334,4.220274166666666,4.513342083333333,4.751835416666666,4.9258489999999995,5.270702666666666,5.30306275,4.9682104166666665,4.632155999999999,4.487569416666667,4.197290333333333,4.2287368333333335,4.4512665,5.04341275,5.078561666666666,4.987588,4.84982925,4.6285497499999995,4.405827749999999,4.323557166666666,4.341155666666666,4.523103,5.298831416666666,5.187758916666667,5.07716725,4.986049333333333,4.805111749999999,4.547385083333333,4.532383083333333,4.706925583333333,5.233197666666666,5.3885068333333335,5.472508416666667,5.3159971666666666,5.131886083333333,4.913924333333333,4.841895500000001,4.7605385,4.851896833333333,5.558625666666667,5.636232166666666,5.601852583333334,5.531506666666666,4.973788083333333,4.93118625,4.899932083333334,4.951188916666666,5.43836925,5.583532833333333,5.683642333333334,5.5864659166666675,5.417501083333332,5.0426434166666665,4.834154083333333,4.861802,5.0721185,5.266038583333333,5.398940916666667,5.590216416666666,5.578916833333333,5.42654075,5.1654963333333335,4.895027583333333,4.708945083333333,4.8752172499999995,5.1458302499999995,5.298975666666666,5.569155916666666,5.539151916666666,5.24161225,4.910895083333333,4.705627333333333,4.671969,4.750681416666667,5.002253416666666,5.217811,5.479720916666667,5.685373333333334,5.0872166666666665,4.821363916666667,4.697934,4.689327083333333,4.970374166666667,5.0611555,5.255652583333333,5.373072083333334,5.392593916666666,5.3488861666666665,5.305178416666666,5.019707666666666,4.761019333333333,4.836798666666666,4.931378583333333,5.156456666666666,5.464574666666667,5.5446815,5.5845425833333335,5.558577583333332,5.302581916666666,5.023169666666666,4.831846083333333,4.950852333333333,5.167227333333333,5.288012666666666,5.464093833333333,5.61579675,5.6291158333333335,5.6121905,5.5720409166666665,5.252286750000001,4.9613344999999995,4.877909916666666,5.085052916666666,5.44933225,5.657677333333333,5.70667425,5.59848675,5.3647055833333335,5.167083083333333,5.060578499999999,4.8931042499999995,4.823960416666666,4.907288833333333,5.084716333333334,5.44558175,5.616181416666667,5.465440166666666,5.2378617499999995,4.883247166666666,4.792465833333333,5.066011916666667,5.303543583333333,5.500204416666666,5.568819333333333,5.4043262499999996,5.0053788333333324,4.619558166666667,4.58556325,4.787272833333334,5.203626416666666,5.516408500000001,5.6064205,5.311669666666666,5.045672666666666,4.762077166666666,4.646869499999999,4.919886666666666,5.2468052499999995,5.4859236666666655,5.740476833333333,5.707443583333332,5.609113166666666,5.472893083333332,5.788079333333332,5.9704594166666665,6.186401666666666,6.368925999999999,6.381283416666666,5.91872175,5.375091583333333,5.020140416666666,4.959507333333333,4.9207521666666665,5.234159333333333,5.563626333333333,5.682536416666665,5.818179499999999,5.767355416666667,5.565357333333334,5.154821833333333,4.809054583333333,4.614605583333333,4.541518916666667,4.876515499999999,5.344125916666666,5.429762333333333,5.457217916666667,5.428223666666667,5.05524125,4.805688749999999,4.788571083333333,4.75202775,4.732073166666667,4.916857416666667,5.104670916666666,5.321574833333333,5.44154275,5.231466666666667,4.935225249999999,4.7613078333333325,4.562819833333333,4.4864635,4.80597725,5.21708975,5.404518583333334,5.52145725,5.399085166666667,5.195788833333332,4.833144333333333,4.610614666666667,4.621673833333333,4.767558666666667,4.92772425,5.137127166666667,5.3535502500000005,5.30854425,5.285848916666667,5.1111621666666665,4.8701204166666665,4.920030916666667,5.001195583333333,5.076494083333333,5.286666333333333,5.53761325,5.665226416666666,5.549008999999999,5.242525833333333,5.183671833333333,4.918203749999999,5.0239389999999995,5.1704489166666665,5.291474666666667,5.37028325,5.496261583333333,5.524197999999999,5.369177333333333,5.068993083333333,4.833913666666667,4.780108416666666,5.06505025,5.22862975,5.345904999999999,5.599015666666666,5.450582416666666,5.305178416666666,5.041970249999999,4.777367666666667,4.753518333333333,4.7936198333333335,4.8750729999999995,5.312390916666667,5.5394885,5.52665025,5.452313416666667,5.328066083333334,5.02754525,4.92310825,4.972730250000001,5.04658625,5.3438855,5.555307916666666,5.466738416666666,5.32296925,5.012350916666667,4.7236104999999995,4.69836675,4.918251833333334,5.345135666666667,5.50530125,5.555211750000001,5.484336916666666,5.232572583333333,4.843963083333333,4.7790025,4.9116644166666665,5.127895166666667,5.347732166666666,5.43375325,5.541027166666667,5.5322759999999995,5.330662583333333,4.996194916666666,4.690673416666667,4.8065542500000005,5.097025666666666,5.384467833333333,5.601275583333333,5.713790583333332,5.657677333333333,5.327777583333334,5.026775916666666,4.745969249999999,4.6702379999999994,4.94214925,5.177661416666667,5.326094666666667,5.574733583333334,5.5506919166666675,5.333787999999999,5.15361975,5.017207333333333,4.949121333333333,4.866369916666667,4.9159438333333325,5.119240166666667,5.297533166666667,5.590553,5.720426083333333,5.634885833333333,5.323979,5.092409666666667,4.880746833333332,4.80222675,4.8113625833333336,5.0917365,5.48741425,5.5684346666666675,5.463132166666667,5.302101083333333,4.854877999999999,4.777752333333333,4.93782175,5.197375583333334,5.588437333333332,5.591514666666666,5.4618339166666665,5.26671175,4.944697666666666,4.765539166666666,4.8234795833333335,5.0830815,5.557663999999999,5.620605083333333,5.421540083333333,5.137319499999999,4.695529833333333,4.713513,4.911279749999999,5.2180514166666665,5.579012999999999,5.710328583333333,5.607478333333333,5.389708916666667,4.90291325,4.899210833333333,4.9081062499999994,4.935273333333334,5.610411416666666,5.7247535833333325,5.773510083333334,5.425290583333333,4.892863833333333,4.786984333333334,4.889161416666666,5.14958075,5.5709349999999995,5.793993583333333,5.784521166666667,5.672535083333334,5.49145325,5.209684916666666,5.079571416666666,5.0804849999999995,5.1921345,5.58435025,5.829575249999999,6.003973500000001,5.9388205833333325,5.5220823333333335,5.327681416666667,5.2377175,5.450390083333333,5.854434333333334,6.194191166666666,6.344595833333333,6.174957833333333,5.582859666666667,5.544777666666666,5.5637225,5.669313499999999,6.224099,6.4503310833333325,6.5301013333333335,6.361809666666667,5.766730333333332,5.643685083333332,5.775000666666667,5.89506475,6.42677025,6.549334666666666,6.611266,6.6329034999999985,6.280500749999999,6.026139916666666,5.918625583333333,5.820439416666667,5.97238275,6.300503416666667,6.542843416666667,6.72565625,6.794078833333334,6.601072333333332,6.3200252500000005,6.0256110000000005,5.769759583333332,5.792022166666666,5.955890166666666,6.525581499999999,6.797444666666666,6.7044515,6.510964166666667,6.247419416666666,5.87400425,5.762883666666666,5.7411019166666675,5.843182833333333,6.023783833333333,6.303196083333333,6.545151416666666,6.573280166666667,6.454562416666666,6.136731583333333,5.863474,5.685373333333334,5.572088999999999,6.021620083333333,6.2413609166666655,6.4322998333333326,6.587801333333332,6.258719,5.970411333333334,5.6981635,5.643060000000001,5.992818166666667,6.2390048333333326,6.486008916666666,6.557797333333333,6.084993916666666,5.923914750000001,5.665947666666665,5.590553,5.9864230833333325,6.301128500000001,6.4240295,6.438983416666666,6.00325225,5.78154,5.536218833333333,5.566559416666666,5.889102416666666,6.111680166666666,6.3271896666666665,6.327718583333333,6.067924333333333,5.816063833333332,5.487895083333332,5.499194666666667,5.900834749999999,6.121393,6.405517416666665,6.496346833333333,6.254728083333333,5.879581916666666,5.660033416666667,5.438850083333333,5.518668416666666,5.6503205833333325,5.942523,6.178179416666666,6.456678083333332,6.502164916666666,6.18875775,5.971709583333333,5.5592507499999995,5.338500166666666,5.553288416666667,5.977816166666666,6.338008416666667,6.408498583333333,6.427972333333333,6.469852916666667,6.3472885,6.378831166666665,6.465333083333333,6.513175999999999,6.669543,6.887552833333333,7.199806,6.832305083333332,6.345605583333334,5.933868,5.8020235,5.743650333333332,5.796493916666666,6.085715166666667,6.442589666666667,6.544862916666666,6.4621595833333325,6.328728333333333,6.112064833333332,5.777741416666667,5.458468083333333,5.262191916666667,5.334653499999999,5.593486083333333,6.188421166666665,6.443839833333333,6.206548583333333,6.026380333333333,5.823997583333333,5.59444775,5.4787592499999995,5.336144083333333,5.4004315,5.6175758333333325,5.9712768333333335,6.08691725,6.062875583333334,5.613296416666667,5.372495083333333,5.09938175,5.12130775,5.426204166666667,5.698500083333332,5.91468275,6.087927,6.096245416666666,5.912999833333333,5.614883166666666,5.384323583333333,5.1549179999999994,5.18593175,5.237236666666667,5.5660305,5.906556666666666,6.085090083333333,5.840201666666666,5.587331416666667,5.270798833333333,5.152802333333333,5.247863083333333,5.618008583333332,5.922183749999999,5.946994749999999,5.815583,5.593101416666666,5.251517416666666,4.979558083333333,4.9976855,5.211704416666666,5.518572249999999,5.807456916666666,5.956130583333334,5.7933685,5.511167416666666,5.315852916666667,5.0415375,4.893825499999999,4.968595083333333,5.196221583333332,5.571127333333333,5.77562575,5.678305083333332,5.620605083333333,5.299408416666666,4.994319666666667,4.797081833333333,4.961286416666667,5.097314166666666,5.351530749999999,5.7818285,5.786733000000001,5.618729833333333,5.173381999999999,4.997445083333333,4.815016916666666,4.805544499999999,4.974509333333333,5.306669,5.625942333333332,5.4846734999999995,5.382496416666666,5.249497916666667,5.087986,4.879881333333333,4.827710916666667,4.9036825833333335,5.247478416666667,5.644742916666666,5.674795,5.6900854999999995,5.62012425,5.35441575,4.887382333333333,4.733611833333334,4.853820166666666,5.203770666666666,5.620364666666666,5.686767749999999,5.74821825,5.455727333333333,4.7055792499999995,4.7006266666666665,4.891229,5.178046083333332,5.692489666666666,5.633154833333332,5.514485166666667,5.340808166666666,4.893633166666667,4.90666375,4.94589975,5.177998,5.460776083333333,5.669698166666667,5.725186333333332,5.655753999999999,5.437167166666666,5.066108083333334,4.87464025,4.802274833333333,5.0825045,5.369369666666667,5.88900625,5.846163999999999,5.673737166666666,5.357396916666666,4.932099833333333,4.778617833333333,4.905846333333333,4.99263675,5.222763583333333,5.865301166666668,5.952283916666666,5.64320425,5.228533583333333,4.759624916666667,4.7335156666666665,4.934600166666667,5.243247083333333,5.546075916666666,5.770625083333332,5.838086,5.664120499999999,5.445726,5.041585583333333,4.800688083333333,4.729332416666666,4.893633166666667,5.554923250000001,5.721003083333333,5.772933083333334,5.689604666666667,5.067165916666666,4.8863245,4.8387700833333325,4.943351333333333,6.069463,6.221214,6.076002333333332,5.9009789999999995,5.459525916666666,5.235890333333333,5.3139295833333335,5.556798499999999,6.058403833333333,6.209289333333333,6.362386666666667,6.147261833333332,5.812072916666668,5.416395166666667,5.262528499999999,5.378842083333333,5.509532583333332,6.190921499999999,6.4072484166666674,6.335363833333333,6.097495583333334,5.497078999999999,5.205453583333333,5.127029666666666,5.3923535,5.693595583333333,6.004935166666666,6.240735833333332,6.219242583333333,5.993779833333332,5.554586666666666,5.20699225,5.119576749999999,5.195692666666667,5.384419749999999,5.732014166666667,5.961275499999999,6.250448666666666,6.260546166666665,5.991231416666667,5.723262999999999,5.349270833333333,5.029901333333333,4.991627,5.189586083333333,5.614883166666666,5.97642175,6.162985083333333,6.032535,5.396055916666666,5.106978916666667,5.010716083333333,4.882814416666666,5.143185666666667,5.434666833333332,5.749708833333333,6.0049832499999996,6.003107999999998,5.845058083333334,5.394276833333333,4.844107333333333,4.691971666666666,4.940274,5.507657333333333,5.814380916666667,5.978970166666667,5.944494416666665,5.191605583333333,4.810016249999999,4.523103,4.71856175,5.6173835,5.883524749999999,6.086580666666666,6.077541,5.322536499999999,4.883199083333333,4.6817779999999996,4.744767166666667,5.475681916666666,5.887756083333333,6.060471416666666,5.972719333333333,5.254739,4.890026916666667,4.792369666666667,4.84925225,5.541892666666667,6.00469475,6.175246333333333,6.1010056666666665,5.79062775,5.222330833333333,4.845309416666667,4.583159083333332,4.770251333333333,5.276039916666666,5.782213166666666,6.125383916666666,6.443839833333333,6.252900916666667,5.856453833333333,5.273443416666667,5.039037166666667,4.988838166666667,5.413221666666666,5.761537333333333,6.181160583333333,6.439800833333333,6.058307666666667,5.469238749999999,5.105680666666666,5.141550833333333,5.534584,6.115286416666666,6.557845416666666,6.7165685,6.546930499999999,6.370128083333333,6.2838665833333325,6.336806333333333,6.40253625,6.694979083333333,7.123593916666667,7.393341416666666,7.493258583333333,6.832449333333333,6.327141583333333,5.842076916666667,5.58348475,5.979499083333334,6.247900250000001,6.595879333333333,6.695700333333334,6.641029583333332,6.558758999999999,6.069126416666666,5.7085014166666666,5.56213575,5.4468319166666666,5.605218416666666,5.98969275,6.353154666666668,6.636028916666667,6.5286107499999995,6.188517333333333,5.889390916666666,5.62041275,5.44990925,5.385381416666667,5.512657999999999,5.842076916666667,6.153512666666665,6.395660333333333,6.474853583333332,6.208471916666667,5.868618916666667,5.438417333333333,5.2655096666666665,5.22545625,5.3763898333333335,5.7514398333333325,6.13221175,6.249823583333334,6.173322999999999,5.9666127499999995,5.60627625,5.437744166666666,5.570742666666667,5.961756333333334,6.2000573333333335,6.465813916666666,6.397199,6.073501999999999,5.8326044999999995,5.711771083333333,5.705568333333333,5.703548833333333,6.070424666666667,6.540679666666666,6.5296205,6.304638583333333,5.973055916666666,5.620268499999999,5.664409,6.062058166666666,6.16481225,6.380225583333334,6.706615249999999,6.408931333333332,5.849289416666667,5.544921916666667,5.439715583333332,5.576801166666667,5.918865999999999,6.1259128333333335,6.370128083333333,6.676947833333333,6.416672749999999,6.102015416666667,5.782934416666666,5.441109999999999,5.604064416666667,5.939253333333333,6.299301333333333,6.6348268333333325,6.411575916666666,6.033737083333334,5.640463499999999,5.347684083333333,5.393459416666666,5.704702833333333,6.11576725,6.373638166666666,6.4607651666666674,6.4533603333333325,6.407488833333333,6.035371916666666,5.469334916666667,5.4275985833333324,5.5660305,5.858088666666667,6.467352583333334,6.434319333333334,6.229820916666667,6.073886666666667,5.5100615,5.494290166666666,5.84515425,6.082830166666667,6.436098416666667,6.56957775,6.379648583333332,6.072059499999999,5.634356916666666,5.375187749999999,5.423511499999999,5.6456565,6.113507333333332,6.364838916666667,6.414220499999999,6.422779333333334,6.321034999999999,6.048691000000001,5.620893583333333,5.391247583333333,5.328498833333334,5.597380833333332,5.95189925,6.53899675,6.514955083333334,6.357482166666666,6.10855475,5.8215934166666665,5.4350034166666665,5.374755,5.566511333333334,6.050085416666666,6.446628666666666,6.572558916666666,6.526783583333333,6.382822083333333,5.914346166666667,5.5827634999999995,5.4206265,5.618922166666667,5.820439416666667,5.932329333333333,6.263960083333333,6.448503916666667,6.457303166666666,6.417201666666667,6.2083276666666665,5.711963416666666,5.492414916666665,5.49174175,5.678593583333332,6.319448250000001,6.498750999999999,6.552796666666667,6.4797580833333335,5.580070833333333,5.506166749999999,5.4679405,5.646858583333334,6.180439333333333,6.445522749999999,6.464708000000001,6.362290499999999,5.418366583333333,5.393747916666666,5.491982166666666,5.635030083333333,6.3865245,6.585637583333334,6.51245475,6.256266750000001,5.6456565,5.335903666666667,5.164919333333333,5.640800083333333,6.566404250000001,6.651367499999999,6.473555333333333,6.2617001666666665,5.659360249999999,5.37893825,5.453275083333334,5.71792575,6.575251583333333,6.741716083333333,6.7016626666666665,6.661128416666667,6.278144666666666,5.813707749999999,5.581898,5.5132830833333335,5.816592750000001,6.729166333333333,7.004010666666667,6.86932925,6.633769,6.391092416666666,5.998443916666666,5.792406833333334,5.809764916666666,6.1027847500000005,6.448888583333333,6.80095475,7.125853833333333,7.187304333333333,6.4748054999999995,6.0704727499999995,5.843375166666665,5.85467475,6.612083416666667,6.899814083333333,6.980690249999999,7.000981416666666,6.502261083333333,6.192123583333333,5.842894333333333,5.6372419166666665,6.465910083333333,6.829564333333334,7.120420416666666,7.064066749999999,6.770998833333333,6.381523833333333,5.979643333333333,5.760575666666667,5.937618499999999,6.412777999999999,6.63939475,6.806243916666666,6.965736333333333,6.14028975,5.963343083333334,5.717060249999999,5.650657166666666,6.224099,6.53870825,6.724934999999999,6.702480083333334,6.421481083333333,5.951081833333332,5.674025666666666,5.424184666666666,5.422020916666667,5.611325,6.042151666666666,6.34916375,6.6049670833333325,6.455091333333333,6.117354,5.7323026666666665,5.5423254166666664,5.356819916666666,5.244449166666667,5.450967083333333,5.7552864999999995,6.206596666666666,6.506011583333333,6.4679295833333335,6.192460166666667,5.749035666666667,5.300081583333333,5.081398583333333,5.394901916666666,5.77216375,6.084465000000001,6.243765083333333,6.0870615,5.678160833333333,5.240506333333333,5.097218,5.3653787500000005,5.612142416666665,5.88035125,6.103121333333333,5.9941164166666665,5.950024,5.690902916666666,5.23757325,5.089716999999999,5.4200495,5.697730750000001,6.037631833333333,6.157744,6.085811333333332,5.931079166666667,5.673641,5.258585666666667,4.989607499999999,5.086880083333333,5.600313916666667,5.796926666666667,5.852366750000001,5.900594333333333,6.030659750000001,5.704510499999999,5.180834916666666,4.9306573333333334,4.896950916666666,5.061203583333333,5.4673635,5.706433833333333,5.803465999999999,5.62762525,5.6841712499999995,5.398989,5.1996355,5.0686565,5.197760249999999,5.373745249999999,5.58059975,5.827507666666666,6.102063499999999,6.262373333333333,6.24991975,6.292569666666666,6.040997666666666,5.815246416666667,5.91583675,6.117305916666666,6.48908625,6.579194416666667,6.258911333333334,5.9535340833333334,5.797647916666667,5.484721583333333,5.135636583333333,5.125539083333333,5.150398166666666,5.617479666666667,5.768461333333334,5.559443083333334,5.321622916666667,4.998454833333334,4.723514333333333,4.730294083333333,5.027304833333333,5.4153373333333334,5.401922083333333,5.342106416666667,5.447601249999999,5.197567916666666,5.0328825,4.68971175,4.8563205,5.016197583333334,5.274934,5.584302166666666,5.34720325,5.236659666666666,5.09995875,4.886372583333333,4.935994583333334,5.044662916666666,5.23872725,5.638780583333333,5.610699916666666,5.32066125,5.029324333333332,4.972826416666666,4.959026499999999,5.076109416666666,5.368071416666666,5.768557499999999,5.6455122499999995,5.378553583333333,5.151648333333333,4.8753614999999995,4.810785583333333,5.100487666666667,5.35383875,5.647676,5.733649,5.699221333333333,5.588437333333332,5.415914333333333,5.100872333333332,5.078032749999999,5.15996675,5.3084,5.7036930833333335,5.794474416666667,5.7503339166666665,5.641857916666667,5.088563,4.8829105833333335,4.8493965,5.138040749999999,5.512321416666666,5.6581581666666665,5.6698905,5.560693249999999,5.098949,4.9006533333333335,4.975855666666667,5.1606879999999995,5.6058915833333325,5.715136916666666,5.670804083333333,5.398940916666667,5.1297223333333335,4.987636083333332,4.941476083333333,5.007782999999999,5.170545083333333,5.371918083333333,5.477941833333333,5.5293909999999995,5.628442666666666,5.4877027499999995,5.137127166666667,4.933927,4.89223875,5.114576083333333,5.372783583333334,5.480009416666667,5.549345583333333,5.588196916666667,5.445485583333333,5.2030494166666665,4.91070275,4.80164975,4.755537833333333,4.982202666666667,5.459574,5.525255833333333,5.582523083333334,5.635174333333333,5.358791333333333,5.175786166666666,4.987011,4.894450583333334,4.841318499999999,5.386295,5.732735416666666,5.749901166666667,5.578868749999999,5.084475916666666,4.87983325,4.849108,4.9563819166666665,5.477989916666666,5.578243666666666,5.610074833333333,5.523813333333333,5.085485666666666,4.876900166666666,4.7697705,4.890988583333333,5.2342555,5.551894,5.6560905833333335,5.616566083333333,5.238582999999999,4.988886249999999,4.820065666666666,4.879737083333333,5.332826333333333,5.658398583333334,5.764278083333333,5.663303083333332,5.215406833333334,4.988453499999999,4.91329925,4.980664,5.375187749999999,5.668544166666667,5.757306,5.697875,5.457602583333333,5.06187675,4.970326083333333,4.881564249999999,4.878871583333333,5.105536416666666,5.418943583333333,5.614306166666666,5.646185416666666,5.6727755,5.469142583333333,5.090871,4.979461916666667,4.862330916666667,4.702357666666666,4.902240083333333,5.300706666666667,5.55780825,5.606324333333333,5.4571698333333325,5.131838,5.015380166666667,4.971624333333334,4.97388425,5.17439175,5.42538675,5.659456416666667,5.711626833333334,5.312439,5.06331925,5.023987083333333,5.036296416666667,5.110344749999999,5.396055916666666,5.562808916666666,5.6623895,5.7046547499999996,5.704558583333333,5.33450925,5.035719416666667,5.0158129166666665,5.026295083333333,5.374418416666667,5.746535333333333,5.873763833333332,5.964064333333333,5.918481333333333,5.639357583333333,5.511023166666667,5.349703583333333,5.114335666666666,5.039421833333333,5.264499916666666,5.567088333333333,5.77245225,5.990414,6.065856749999999,5.973440583333333,5.728696416666666,5.472268,5.353742583333332,5.386823916666667,5.582811583333334,5.821401083333334,6.098361083333334,6.3033884166666665,6.193037166666667,5.93055025,5.627769499999999,5.423751916666666,5.510013416666666,5.709078416666666,5.8284693333333335,6.129711416666666,6.243861249999999,6.228763083333333,6.170341833333333,5.8445772499999995,5.558577583333332,5.451688333333333,5.452746166666667,5.64464675,5.764999333333333,6.065568249999999,5.954832333333333,5.9316561666666665,5.788800583333333,5.490347333333332,5.322536499999999,5.471210166666666,5.915644416666666,6.0757138333333325,6.0041658333333325,5.814332833333332,5.6395979999999994,5.435772749999999,5.267481083333333,5.425723333333333,5.59790975,5.727686666666666,5.89016025,5.709559249999999,5.506647583333333,5.250074916666667,5.23728475,5.331431916666666,5.595745999999999,5.78976225,5.875254416666667,5.776443166666667,5.55809675,5.392593916666666,5.152994666666666,5.264211416666666,5.341481333333333,5.503858749999999,5.687969833333333,5.873379166666666,5.662629916666666,5.442071666666666,5.0871205,4.911183583333333,5.185979833333333,5.449524583333333,5.608151500000001,5.7872138333333325,5.753218916666666,5.713069333333333,5.447360833333334,5.218628416666666,5.084860583333334,4.9457555,5.070579833333333,5.373601,5.684844416666667,5.654551916666666,5.4639014999999995,5.277915166666666,4.9383506666666666,5.0811581666666665,5.2544505,5.386823916666667,5.587427583333333,5.6557059166666654,5.5758875833333335,5.358310499999999,5.158428083333333,4.9932618333333325,4.9734515,5.205549749999999,5.312775583333333,5.739370916666666,5.66513025,5.4990985,5.24218925,4.946861416666667,4.8156419999999995,4.9872033333333325,5.169102583333333,5.314410416666666,5.676910666666667,5.616518,5.416395166666667,5.239977416666666,5.0946215,5.0597129999999995,5.1332805,5.379034416666666,6.0139267499999995,6.168899333333333,6.054941833333333,5.974450333333333,5.952139666666667,5.865349249999999,5.925212999999999,6.030130833333334,6.234292666666666,6.4852876666666655,6.259344083333333,5.8800627500000004,5.58146525,5.354944666666666,5.2122814166666664,5.09418875,5.239929333333333,5.499483166666667,5.696480583333333,5.820727916666667,5.739082416666666,5.632866333333332,5.344702916666667,5.004705666666666,4.695289416666666,4.770107083333333,4.985472333333333,5.475345333333333,5.699317499999999,5.653638333333332,5.5400655,4.915559166666667,4.862330916666667,4.923012083333333,5.091832666666667,5.41226,5.432070333333333,5.431733749999999,5.2737799999999995,4.800014916666666,4.674228916666666,4.836846749999999,5.159918666666667,5.507897750000001,5.577762833333334,5.601419833333334,5.560981749999999,4.938446833333333,4.690096416666667,4.8254029166666665,5.027497166666666,5.154725666666667,5.422405583333333,5.812938416666667,5.7923106666666655,5.637482333333334,5.075772833333333,4.960132416666666,4.903249833333333,5.07024325,5.552471000000001,5.754661416666665,5.7443235,5.6531575,5.386295,5.244833833333333,4.985039583333333,4.9411395,5.005859666666667,4.965133083333333,5.243439416666666,5.723791916666666,5.778703083333333,5.643011916666667,5.469767666666667,5.322873083333333,5.104190083333333,4.964315666666667,4.945226583333333,5.328450749999999,5.568194249999999,5.728215583333333,5.63974225,5.45308275,5.197904499999999,5.06851225,4.9108469999999995,5.0811581666666665,5.268154249999999,5.57223325,5.724945916666666,5.59329375,5.408846083333334,5.1608322499999995,5.027401,4.8256914166666665,4.8742075,5.101016583333332,5.338740583333333,5.447601249999999,5.553721166666667,5.613200249999999,5.112027666666666,4.9067118333333335,4.855166499999999,5.030862999999999,5.31114075,5.661620166666666,5.759181249999998,5.584446416666665,5.172997333333333,4.990184499999999,4.885410916666666,4.832567333333333,4.917001666666667,5.198000666666666,5.574300833333333,5.568578916666667,5.475922333333333,5.081975583333333,5.056827999999999,5.0369215,4.868726,5.191461333333333,5.419232083333333,5.529823749999999,5.587908416666667,5.628106083333333,5.3560505833333325,5.082167916666666,4.971431999999999,4.98628975,5.105873,5.45106325,5.560981749999999,5.6483972499999995,5.503762583333334,5.216031916666666,5.018168999999999,4.994175416666667,5.072743583333333,5.266952166666666,5.530737333333334,5.829431,5.559731583333334,5.19256725,5.03764275,4.888440166666666,5.262576583333333,5.424713583333332,5.59992925,5.698644333333333,5.471210166666666,5.302053,5.052789,4.897816416666667,5.086447333333333,5.404903249999999,5.561174083333333,5.619210666666667,5.575310583333334,5.281281,5.129193416666666,5.0109565,5.0902459166666665,5.321670999999999,5.596082583333334,5.78774275,5.745766,5.5897836666666665,5.1426567499999996,4.981866083333333,4.880025583333333,4.793956416666666,5.035719416666667,5.1938655,5.3897569999999995,5.609353583333334,5.59762125,5.503185583333334,5.4589489166666665,5.214589416666667,4.952871833333333,4.918732666666666,5.0236505,5.2792615,5.535786083333332,5.706337666666666,5.756680916666667,5.573771916666666,5.439379,5.237429,5.045672666666666,5.057116499999999,5.249065166666666,5.540594416666667,6.055278416666667,5.830969666666667,5.3784574166666665,5.093371333333333,5.019082583333333,5.13284775,5.591178083333332,5.850876166666667,6.066578,5.8178909999999995,5.531314333333333,5.265894333333333,5.304601416666666,5.3860065,5.560308583333334,5.916557999999999,6.1486081666666665,6.029121083333333,5.765047416666666,5.4373594999999995,5.50934025,5.641328999999999,5.89694,6.043161416666666,6.20289425,6.16394675,5.910595666666667,5.665226416666666,5.412837,5.566222833333334,5.840153583333333,6.102063499999999,6.055422666666666,5.854818999999999,5.539392333333333,5.28200225,5.206271,5.312198583333333,5.687104333333333,5.918385166666666,5.979210583333334,6.110910833333333,5.944350166666666,5.5383345,5.272000916666666,5.2040110833333335,5.177421,5.21362775,5.358839416666666,5.683642333333334,5.9358875,5.77447175,5.631327666666667,5.395911666666667,5.059376416666666,5.011437333333332,5.2479111666666665,5.518187583333333,5.843856,5.824141833333332,5.68821025,5.461881999999999,5.054568083333333,5.02004425,5.080677333333333,5.328450749999999,5.83447975,5.716435166666667,5.519437750000001,5.369417749999999,4.894690999999999,5.022015666666666,5.0830815,5.420097583333333,5.803321749999999,5.819718166666665,5.710665166666666,5.586273583333333,5.306669,4.934311666666667,4.811554916666666,4.888824833333333,5.180931083333333,5.489481833333333,5.663783916666667,5.794955249999998,5.6376746666666655,5.501983500000001,5.2419969166666665,4.974845916666666,4.856705166666666,4.897816416666667,5.006628999999999,5.264740333333333,5.598102083333333,5.817506333333334,5.8634259166666665,5.628971583333333,5.208867499999999,4.969124,4.983116249999999,4.9746055,5.045095666666666,5.344847166666667,5.625653833333332,5.621230166666666,5.652965166666667,5.5013103333333335,4.957391666666667,4.75462425,4.762317583333333,5.016822666666666,5.698836666666666,5.714800333333333,5.70696275,5.572666000000001,4.947534583333333,4.786936249999999,4.767270166666667,4.9832605,5.575454833333333,5.791397083333333,5.843279,5.781924666666666,5.54540275,5.596515333333333,5.966228083333333,6.24097625,6.348057833333332,6.450186833333333,6.532505499999999,6.487210999999999,6.229388166666666,5.431781833333333,5.097410333333333,5.260989833333333,5.342779583333333,5.520110916666666,5.8056297500000005,5.8800627500000004,5.807168416666666,5.459958666666666,5.080148416666666,4.880217916666667,4.8313171666666666,4.87839075,5.143233749999999,5.405816833333333,5.64118475,5.514340916666666,5.328354583333334,5.019948083333333,4.8470885,5.0553855,5.193,5.148234416666666,5.200116333333333,5.470488916666667,5.464718916666666,5.2961868333333335,5.1350115,4.9049327499999995,4.746209666666666,4.849108,5.2030494166666665,5.446206833333334,5.658494749999999,5.549970666666667,5.201558833333333,4.978740666666667,4.854541416666666,4.80713125,5.3695139166666666,5.645848833333333,5.696913333333332,5.534920583333332,5.482654,5.196606249999999,4.952871833333333,4.861753916666667,4.939071916666666,5.230745416666666,5.636616833333334,5.86650325,5.910836083333333,5.874869749999999,5.771634833333333,5.4837118333333335,5.227571916666666,5.055722083333333,5.027016333333333,5.210069583333333,5.458612333333334,5.711145999999999,5.831498583333333,5.730860166666667,5.447072333333334,5.223629083333333,5.09938175,4.89483525,4.894306333333333,5.156504749999999,5.374947333333332,5.532612583333333,5.706001083333333,5.754228666666666,5.4944344166666665,5.223773333333333,5.0389409999999994,4.9803755,4.973932333333333,4.914693666666666,5.2624804166666665,5.576945416666667,5.750910916666666,5.756873249999999,5.5482396666666665,5.311477333333333,5.0721185,4.912241416666666,4.992300166666666,5.119480583333333,5.388603,5.525063499999999,5.596996166666667,5.5963710833333336,5.252815666666666,4.978259833333333,4.926089416666667,4.9421973333333336,5.090486333333334,5.406201500000001,5.653686416666666,5.718454666666666,5.523524833333333,5.2942635,5.164727,4.945082333333333,5.080869666666666,5.3773515,5.749035666666667,5.926944,5.590456833333332,5.380909666666667,5.02004425,4.861898166666667,4.95686275,5.042691499999999,5.249497916666667,5.522851666666667,5.811592083333333,5.623874749999999,5.351530749999999,5.0061962499999995,4.92758,5.390959083333333,5.504964666666667,5.596034499999999,5.763172166666666,5.557663999999999,5.328498833333334,5.042066416666667,4.845597916666667,4.797129916666666,5.180642583333333,5.577089666666667,5.8144290000000005,5.982432166666666,5.777501,5.531650916666667,5.181363833333333,4.9734515,4.92772425,4.900028249999999,4.9861455,5.341625583333333,5.611276916666665,5.722589833333333,5.70148125,5.569396333333333,5.214974083333334,5.016245666666666,4.9823949999999995,5.089332333333333,5.331431916666666,5.624596,5.756969416666667,5.445149,5.098852833333333,5.0359117499999995,4.972586,4.760009583333333,4.915847666666667,5.408076749999999,5.711145999999999,5.720522249999999,5.522947833333333,5.231178166666666,4.917915249999999,4.8503100833333335,4.7977549999999995,4.930080333333333,5.2782998333333335,5.694509166666666,5.525400083333333,5.3607146666666665,5.295898333333334,4.97590375,4.9288782499999995,5.03418075,5.23959275,5.513523499999999,5.659360249999999,5.47443175,5.31171775,5.129193416666666,4.866418,4.8859398333333335,5.142704833333333,5.549970666666667,5.781107250000001,5.8532322500000005,5.67868975,5.498281083333333,5.196894749999999,5.149340333333333,5.248920916666666,5.561125999999999,5.8453946666666665,5.823757166666667,5.96834375,6.0584999999999996,5.909634,5.511744416666666,5.207809666666666,5.337682749999999,5.604016333333333,5.821689583333334,6.207462166666666,6.109179833333333,5.900498166666666,5.654648083333334,5.2671445,5.083418083333332,5.310563749999999,5.702154416666666,6.055759249999999,6.082108916666667,5.98074925,5.643637000000001,5.150109666666666,5.271423916666666,5.581080583333333,5.771490583333332,5.941609416666666,5.913624916666667,5.677583833333333,5.437840333333333,5.0351905,5.066011916666667,5.230985833333333,5.5619915,5.803417916666667,5.924684083333332,5.840249749999999,5.532372166666668,5.146455333333333,4.9474384166666665,4.709233583333333,4.82848025,4.960997916666667,5.205309333333333,5.750910916666666,5.714800333333333,5.411827249999999,5.133617083333333,4.9683546666666665,4.724235583333333,4.695529833333333,4.891902166666666,5.180306,5.415193083333333,5.510013416666666,5.536218833333333,5.335999833333332,4.925608583333333,4.6600443333333335,4.406260499999999,4.528392166666666,4.941812666666666,5.2597396666666665,5.491357083333333,5.5006371666666665,5.3627822499999995,5.154244833333333,4.523631916666667,4.3825554166666665,4.5060815,4.599074666666666,5.29873525,5.4233191666666665,5.3479245,5.000330083333333,4.561377333333334,4.457276916666666,4.523776166666667,4.77279975,5.253488833333333,5.428752583333334,5.43836925,5.3102271666666665,4.627059166666666,4.32187425,4.347935416666666,4.605373583333333,5.0290358333333325,5.2481035,5.264980749999999,5.18564325,4.6213853333333335,4.380968666666667,4.608979833333333,4.7542876666666665,5.239929333333333,5.4736624166666665,5.235313333333333,4.95643,4.455834416666667,4.389816,4.417848583333333,4.651966333333333,5.341289,5.328162249999999,5.048461499999999,4.899114666666667,4.467662916666666,4.62191425,4.712695583333333,4.856993666666667,5.3052265,5.8388072499999994,6.237562333333333,6.2618444166666665,6.1806797499999995,5.838326416666667,5.479528583333333,5.311813916666666,5.364513249999999,5.3944210833333335,5.614883166666666,5.701000416666666,5.62041275,5.421492,5.126981583333333,4.804823249999999,4.6705265,4.64528275,5.134915333333333,5.24593975,5.351290333333334,5.352829,4.829826583333333,4.444005916666666,4.365053083333333,4.40727025,4.849011833333333,5.069041166666667,5.383602333333333,5.272000916666666,5.13371325,4.781214333333333,4.427417166666666,4.390633416666666,4.466893583333333,4.67615225,5.080388833333333,5.293061416666666,5.30912125,5.26094175,5.11207575,5.017592,4.658072916666666,4.4784335833333335,4.445977333333333,4.659948166666666,5.18362375,5.34662625,5.402835666666667,5.2675772499999995,5.11799,4.955372166666666,4.655716833333334,4.4835304166666665,4.545413666666666,4.895268,5.229110583333333,5.409278833333333,5.440484916666667,5.441446583333334,5.322632666666666,5.058751333333333,4.707983416666666,4.660380916666667,4.6053255,4.67817175,4.984462583333333,5.2463725,5.3757166666666665,5.127750916666667,4.95224675,4.7156286666666665,4.542720999999999,4.593256583333333,4.647398416666666,4.900316749999999,5.281281,5.465343999999999,5.218147583333333,4.896758583333333,4.814488,4.6187888333333325,4.633790833333333,4.917386333333334,5.285368083333333,5.389949333333333,5.29094575,5.139098583333333,4.858868916666666,4.768616499999999,4.749094666666667,4.788138333333333,4.850839,5.137752249999999,5.405528333333333,5.449428416666667,5.282386916666666,5.083754666666667,4.990473,4.92541625,5.182133166666667,5.29065725,5.524967333333333,5.50068525,5.340519666666666,5.332105083333333,5.13919475,5.052260083333333,4.917145916666667,5.1207788333333335,5.525303916666666,5.494049749999999,5.504387666666667,5.559587333333333,5.4530346666666665,5.216272333333333,5.1608322499999995,4.969172083333333,5.081590916666666,5.554346249999999,5.728552166666666,5.871888583333334,5.757786833333333,5.515062166666667,4.970903083333333,5.148234416666666,5.28921475,5.292628666666666,5.911413083333333,5.963679666666665,5.962237166666665,5.68215175,5.173093499999999,4.967873833333333,4.955372166666666,5.097121833333333,5.551365083333333,5.779809,5.716435166666667,5.7563924166666665,5.87963,5.375380083333333,5.282963916666667,5.161313083333334,5.274020416666667,5.660514249999999,5.918096666666666,5.757786833333333,5.563482083333333,5.420915,5.143570333333334,4.883535666666666,5.036536833333333,5.449428416666667,5.865349249999999,5.8280846666666655,5.728936833333333,5.751343666666666,5.527034916666666,5.339317583333333,5.024035166666667,4.916953583333332,5.206751833333333,5.380188416666667,5.59444775,5.691624166666666,5.7799051666666665,5.63454925,5.3438855,5.172997333333333,5.0111488333333325,5.045095666666666,5.1332805,5.351482666666666,5.484865833333333,5.554634750000001,5.545306583333333,5.603343166666668,5.534728250000001,5.183671833333333,4.972730250000001,4.986193583333333,5.4333205,5.772115666666665,6.092302583333333,6.172649833333334,5.687825583333333,5.54828775,5.4333205,5.326094666666667,5.388074083333333,5.6376746666666655,5.920500833333333,6.2727112499999995,6.37310925,5.950601,5.808418583333334,5.712107666666667,5.674843083333333,6.150868083333333,6.244630583333333,6.294829583333332,6.348154,6.013542083333333,5.89117,5.86015625,5.772692666666665,6.110574249999999,6.272326583333332,6.31396675,6.333151999999999,6.271701499999999,6.125960916666666,5.8631374166666665,5.5223708333333335,5.4504381666666655,5.851982083333333,6.1684185000000005,6.348827166666666,6.3302189166666665,6.148127333333332,5.918914083333333,5.6877775,5.482269333333332,5.5431428333333335,5.7524015,5.903238916666666,5.866743666666667,6.137885583333333,6.297426083333334,6.010512833333333,5.7943782499999985,5.678208916666667,5.625942333333332,5.489097166666666,5.631712333333333,5.708741833333334,5.856021083333332,6.021523916666666,6.0417189166666665,5.936608749999999,5.556798499999999,5.252671416666666,5.258152916666666,5.402210583333333,5.568242333333333,5.881457166666666,6.151973999999999,6.021908583333333,5.865253083333333,5.5970923333333324,5.332008916666666,5.3645613333333335,5.481019166666666,5.5896394166666665,5.748939499999999,6.061433083333333,5.819429666666665,5.72831175,5.587235249999999,5.324556,5.279213416666667,5.435772749999999,5.554394333333332,5.7214358333333335,5.9595445,5.840249749999999,5.486500666666667,5.2457955,5.121259666666666,5.450919,5.6826325833333335,5.8001482499999995,6.006810416666666,5.729994666666666,5.5169855000000005,5.35932025,5.090053583333333,5.138954333333333,5.579301500000001,5.8148617499999995,5.785338583333332,5.862271916666667,5.88208225,5.605603083333333,5.287291416666666,5.103180333333333,5.125010166666667,5.156985583333333,5.34316425,5.61637375,5.9151635833333325,5.923914750000001,5.6520035,5.433128166666666,5.369225416666666,5.156360499999999,5.254979416666667,5.481307666666666,5.706914666666666,5.689845083333332,5.6110365,5.5302084166666665,5.366869333333333,5.4815000000000005,5.780289833333332,6.205058,6.56726975,6.575588166666666,6.4877399166666665,6.433549999999999,6.080522166666666,5.689171916666666,5.907951083333334,6.000992333333333,6.105910166666667,6.0171002499999995,5.899392249999999,5.714030999999999,5.403364583333333,5.291715083333333,5.36682125,5.551028499999998,5.801879249999999,5.812072916666668,5.674362249999999,5.533814666666667,5.631712333333333,5.560741333333333,5.2825792499999995,5.069522,5.189922666666666,5.497127083333333,5.603295083333333,5.57338725,5.705616416666667,5.6698905,5.426973499999999,5.121211583333333,5.050577166666666,5.101160833333333,5.294936666666667,5.333307166666667,5.48654875,5.7664418333333325,5.799330833333333,5.5619915,5.454044416666666,5.34633775,5.238582999999999,5.149628833333333,5.189874583333333,5.380621166666667,5.6837385,5.742063583333333,5.734802999999999,5.612959833333334,5.1049594166666665,5.343548916666666,5.335999833333332,5.345616499999999,5.635799416666667,5.639357583333333,5.6399826666666675,5.594495833333333,5.407259333333333,5.1913651666666665,5.348213,5.577233916666667,5.6600814999999995,5.743217583333332,5.6381555,5.638299749999999,5.438705833333333,5.130155083333333,5.2051169999999995,5.279453833333333,5.220455583333333,5.400623833333333,5.722445583333333,5.745814083333333,5.637818916666666,5.58031125,5.305082249999999,5.196750499999999,5.213195,5.3977388333333325,5.838086,5.951995416666666,5.851837833333332,5.5381902499999995,5.143522249999999,5.0115335,5.034709666666666,5.130203166666666,5.428608333333333,5.6097382499999995,5.631519999999999,5.620364666666666,5.422069,5.339365666666666,5.147417,5.040623916666666,5.155158416666667,5.2864259166666665,5.388170249999999,5.625701916666666,5.790146916666665,5.914442333333333,5.771682916666666,5.416924083333332,5.132655416666666,5.073945666666667,5.229110583333333,5.826738333333334,6.011378333333333,5.988346416666666,5.791781749999999,5.392738166666667,5.294792416666667,5.1707855,5.15823575,5.833085333333333,5.879004916666666,5.839384249999999,5.623442,5.317439666666666,5.1161147499999995,5.207473083333333,5.297485083333333,5.472219916666667,5.674410333333333,5.533526166666667,5.605266499999999,5.81947775,5.666668916666667,5.275991833333333,5.182614,5.16919875,5.285271916666666,5.524486499999999,5.588437333333332,5.694172583333334,5.9785855,5.813707749999999,5.727398166666666,5.648878083333333,5.335903666666667,5.153860166666666,5.231851333333332,5.554298166666666,5.8317870833333325,5.80966875,5.878668333333333,5.849097083333333,5.379948,5.145734083333333,5.0753881666666665,5.255364083333333,5.439619416666666,5.676045166666667,5.702154416666666,5.941369000000001,5.893718416666666,5.5329491666666675,5.18102725,5.075003499999999,5.095919749999999,5.5435755833333324,5.716242833333332,5.984980583333333,6.052153,5.801638833333333,5.365042166666666,5.100151083333333,5.201462666666667,5.6046414166666665,5.5919954999999995,5.71619475,5.902469583333333,5.688066,5.313016,5.042451083333333,5.166890749999999,5.892372083333334,6.095139499999999,6.025659083333333,6.116392333333334,5.799138500000001,5.80851475,5.533718499999999,5.305322666666666,5.645704583333334,5.987577083333332,6.337671833333332,6.4243179999999995,5.998011166666665,5.660898916666667,5.441975500000001,5.44500475,5.93833975,6.259392166666665,6.482018,6.565683,6.090619666666666,5.895305166666667,5.750959000000001,5.584590666666666,6.066385666666666,6.292040750000001,6.512839416666666,6.558855166666667,6.443695583333333,6.131250083333332,5.860589,5.7317737499999994,5.711771083333333,5.693307083333333,5.855347916666666,6.099322749999999,6.325651,6.109997249999999,5.953822583333333,5.702587166666667,5.5706465,5.45654475,5.6311834166666666,5.805004666666666,5.922760750000001,6.044363499999999,5.755623083333333,5.548335833333333,5.324315583333333,5.207328833333333,5.4588046666666665,5.747208499999999,6.008204833333333,6.062971749999999,5.962381416666666,5.64464675,5.457891083333333,5.264355666666666,5.278203666666666,5.590553,5.990365916666666,6.031573333333333,6.0100800833333325,5.857607833333333,5.723022583333333,5.531554749999999,5.370090916666666,5.207953916666666,5.383890833333333,5.635174333333333,5.923578166666666,5.9771910833333335,5.784809666666667,5.585936999999999,5.3369615,5.174584083333333,5.287195249999999,5.517706749999999,5.673064,5.790098833333334,5.763893416666666,5.851837833333332,5.60021775,5.165881,5.042018333333333,5.184296916666667,5.269548666666666,5.471065916666666,5.691239499999999,5.923289666666666,5.996568666666666,5.703741166666667,5.561029833333333,5.291282333333332,5.041008583333333,5.071012583333333,5.4865968333333335,5.770384666666666,5.61608525,5.738938166666667,5.731100583333333,5.451976833333333,5.298062083333333,5.10890225,5.140733416666666,5.289984083333333,5.582859666666667,5.929059666666667,5.748362499999999,5.432070333333333,5.1777575833333325,5.1009685,5.2434875,5.383361916666666,5.635655166666666,5.673785249999999,5.6199319166666655,5.504531916666667,5.4925110833333335,5.3740818333333324,5.230408833333333,5.137752249999999,5.373456749999999,5.782309333333334,6.0154654166666655,6.508752333333333,6.641173833333333,6.499856916666666,6.294012166666666,6.230109416666667,6.07595425,5.989356166666666,5.953005166666666,6.0457098333333334,6.26232525,6.246313499999999,6.204817583333334,5.800004,5.341625583333333,5.15333125,5.151552166666666,5.31719925,5.53645925,5.618825999999999,5.674746916666666,5.638444,5.587091,5.567328749999999,5.290753416666667,5.042739583333333,5.005138416666666,5.210790833333333,5.411106,5.609930583333334,5.760335250000001,5.744852416666666,5.303255083333333,4.9574878333333325,4.9602285833333335,4.967441083333333,4.985520416666667,5.226465999999999,5.653397916666666,5.7971189999999995,5.723262999999999,5.60656475,5.440581083333334,5.112027666666666,5.045384166666666,5.216464666666666,5.355810166666667,5.487943166666667,5.56127025,5.813130749999999,5.635655166666666,5.4417350833333336,5.1265488333333336,5.122654083333333,5.138617749999999,5.390333999999999,5.87977425,6.092110249999998,5.928867333333333,5.699654083333333,5.1234715,5.1844892499999995,5.33364375,5.48626025,5.8859770000000005,5.9835380833333325,5.801254166666666,5.588341166666666,5.1534755,5.196077333333332,5.380332666666667,5.539632749999999,5.766778416666667,5.999742166666667,6.030948250000001,5.817073583333333,5.609209333333332,5.402114416666667,5.173670499999999,5.145445583333333,5.25978775,5.436494,5.656571416666666,5.865974333333333,5.916317583333334,5.747833583333333,5.3138815,5.2186765,5.244256833333333,5.363551583333333,5.470392749999999,5.683498083333333,5.694653416666667,5.7453813333333335,5.732543083333333,5.2729625833333325,5.165544416666666,5.261470666666666,5.549682166666667,5.641040499999999,5.809284083333334,5.849577916666667,5.6896527500000005,5.454957999999999,5.305418833333333,5.2850315,5.3627822499999995,5.866551333333333,6.061433083333333,6.013253583333333,5.778462666666666,5.452024916666666,5.2549313333333325,5.27277025,5.493280416666667,5.62791375,5.719945249999999,5.878235583333333,5.931896583333333,5.928867333333333,5.910836083333333,5.598054,5.227091083333333,5.30219725,5.596707666666667,5.732543083333333,6.0033965,6.102496250000001,6.0027714166666675,5.852414833333332,5.537084333333333,5.34460675,5.280271249999999,5.4091345833333335,5.692874333333333,6.014696083333333,6.119565833333333,6.131250083333332,5.885784666666666,5.7235034166666665,5.603102749999999,5.446351083333333,5.302966583333333,5.6042086666666675,5.84717375,6.001569333333333,5.98103775,5.909585916666665,5.642867666666667,5.419424416666666,5.386102666666666,5.538767249999999,5.7408614999999985,6.028592166666667,6.265258333333333,6.243861249999999,5.707491666666666,5.52780425,5.419280166666667,5.3889395833333325,5.566367083333334,5.750622416666666,5.956371,6.208808499999999,6.200682416666666,5.8155349166666666,5.689604666666667,5.561799166666667,5.497367499999999,5.787550416666666,5.965025999999999,6.0221970833333325,6.072059499999999,5.941320916666666,5.641280916666666,5.471931416666666,5.496453916666667,5.670227083333333,5.875831416666667,6.106054416666666,6.3262279999999995,6.335796583333333,6.084801583333333,5.962958416666666,5.869917166666666,6.038208833333333,6.073021166666667,6.154378166666667,6.356808999999999,6.673197333333332,6.678438416666666,6.644732,6.45042725,6.28540525,6.191017666666667,6.073838583333333,6.18010275,6.402007333333333,6.7741723333333335,6.881061583333332,6.903804999999999,6.624104249999999,6.297762666666666,6.373590083333333,6.432924916666665,6.567894833333334,6.909719249999999,7.004443416666667,7.027331083333333,6.920730333333332,6.699739333333333,6.6016493333333335,6.342576333333334,6.494808166666666,6.7359460833333324,6.897217583333333,6.916739416666666,6.986700666666667,6.795665583333332,6.470285666666666,6.274105666666666,6.4586495,6.506348166666666,6.539669916666665,6.72219425,6.894765333333333,6.8839465833333335,6.764074833333333,6.648242083333333,6.541016249999999,6.439560416666666,6.293387083333332,6.437540916666666,6.7254639166666665,6.837834666666666,6.769556333333333,6.598091166666666,6.498510583333332,6.292136916666666,6.20404825,6.189959833333333,6.2480445,6.362290499999999,6.605544083333332,6.644683916666666,6.685554749999999,6.647232333333334,6.418451833333332,6.043257583333333,5.917327333333334,6.164764166666667,6.161109833333334,6.2559301666666665,6.631941833333333,6.747918833333333,6.6542044166666665,6.388640166666668,6.2460249999999995,6.110381916666667,6.18702675,6.199913083333333,6.148463916666667,6.250015916666666,6.44148375,6.463505916666667,6.324064249999999,6.136010333333334,6.011137916666667,6.048691000000001,6.075906166666666,6.325218249999999,6.5780885,6.5343807499999995,6.355414583333332,6.232705916666666,5.968103333333333,5.8364511666666665,5.932473583333333,6.2185213333333325,6.485960833333333,6.618238083333332,6.439656583333334,6.297906916666666,6.0358046666666665,5.839913166666666,5.7317737499999994,5.837605166666666,6.062587083333334,6.324256583333334,6.461342166666667,6.313582083333333,6.241457083333334,6.139953166666666,6.045517499999999,5.951658833333332,6.035612333333333,6.236744916666667,6.56813525,6.494904333333333,6.227897583333333,6.040709166666666,5.875206333333334,6.110189583333333,6.253766416666667,6.330459333333333,6.405373166666666,6.50899275,6.300022583333333,6.0773486666666665,5.903479333333333,5.839720833333334,5.7927915,5.870638416666666,6.142693916666666,6.643289499999999,6.877888083333333,6.947512749999999,6.968284749999999,6.883273416666666,6.848509166666667,6.819803416666666,6.868944583333334,7.06781725,7.118208583333334,6.894717249999999,6.6709855000000005,6.331805666666667,6.0757138333333325,6.080185583333333,5.8291425,5.963968166666667,6.2336195,6.493461833333334,6.5388044166666655,6.483075833333333,6.242322583333333,6.066385666666666,5.957380749999999,5.839191916666667,5.718166166666666,5.666043833333333,5.78947375,5.9923373333333325,6.296175916666666,6.598187333333333,6.303580749999999,5.9312715,5.77158675,5.758123416666667,5.793272333333333,5.648493416666667,5.668832666666667,6.231696166666666,6.290886749999999,6.115382583333333,5.962381416666666,5.81890075,5.744179249999999,5.531073916666666,5.5707907500000005,5.65532125,5.818371833333334,6.050902833333332,6.026332249999999,5.961179333333334,5.771731,5.459141249999999,5.371677666666667,5.33883675,5.5169855000000005,5.764133833333333,5.943340416666666,6.020321833333333,6.0883597499999995,5.971517249999999,5.869003583333332,5.558144833333333,5.490155000000001,5.606660916666667,5.61637375,5.791156666666666,6.04623875,6.132981083333334,5.893429916666666,5.480923000000001,5.4436584166666675,5.288397333333333,5.367734833333333,5.8140443333333325,5.882803499999999,5.887515666666666,5.8028889999999995,5.590504916666666,5.3975465,5.3712930000000005,5.2907053333333325,5.299745,5.557375499999999,5.8011099166666655,5.952524333333334,5.7449005,5.3883145,5.2284855,5.13544425,5.032930583333333,5.256469999999999,5.349222749999999,5.771346333333333,6.035035333333333,5.9347335,5.363359249999999,5.232043666666667,5.101833999999999,5.161890083333334,5.530737333333334,5.691768416666666,5.840345916666667,5.877081583333332,5.671861916666667,5.366340416666667,5.3179205,5.505974416666667,5.300754749999999,5.264644166666666,5.322873083333333,5.589206666666667,5.8839094166666674,5.922760750000001,5.769807666666666,5.617143083333333,5.318160916666667,5.169871916666667,5.118663166666667,5.184537333333333,5.354752333333334,5.641136666666667,5.8819860833333335,5.938964833333333,5.6175758333333325,5.410961749999999,5.261278333333333,5.150398166666666,5.069137333333333,5.29498475,5.692345416666666,5.961275499999999,6.081002999999999,5.5506919166666675,5.456496666666666,5.315131666666667,5.1240485,5.22459075,5.794810999999999,6.006137249999999,5.941705583333333,5.536507333333333,5.3372019166666655,5.314410416666666,5.0692335,5.102795666666666,5.373937583333333,5.608824666666666,5.825343916666665,5.983634249999999,5.835393333333333,5.371244916666666,5.0730320833333336,5.013553,5.59935225,5.709366916666666,5.81803525,5.940263083333332,5.78918525,5.381053916666667,5.144291583333334,5.1037092500000005,5.233005333333334,5.33018175,5.52780425,5.856598083333334,5.876216083333333,5.810293833333333,5.624596,5.397017583333334,5.191268999999999,5.076686416666666,5.194779083333333,5.489481833333333,5.788656333333332,5.923626250000001,5.740717249999999,5.86621475,5.738216916666666,5.369033083333334,5.216753166666666,5.443898833333333,5.769230666666666,5.876264166666666,5.83505675,5.7147041666666665,5.6498878333333336,5.453323166666666,5.093996416666666,5.476883999999999,5.590745333333332,5.772692666666665,5.88092825,6.255834,6.0712901666666665,5.583100083333334,5.376149416666666,5.345135666666667,5.451832583333332,5.756344333333334,6.07018425,6.287184333333333,6.1188926666666665,5.847558416666668,5.59300525,5.467988583333334,5.532804916666667,5.761729666666667,6.0155135,6.240880083333334,6.335171499999999,6.333777083333334,6.205827333333333,5.79524375,5.69499,5.596130666666667,5.93314675,6.186882499999999,6.339739416666666,6.5025976666666665,6.525389166666667,6.394410166666666,6.081387666666667,5.818131416666666,5.5776666666666666,5.613152166666667,5.929828999999999,6.28309725,6.553181333333332,6.480431249999999,6.411816333333332,6.3083409999999995,6.066145249999999,5.613344499999999,5.677728083333332,5.78154,6.020466083333333,6.304734750000001,6.371185916666668,6.13538525,5.98565375,5.602814249999999,5.690566333333334,5.809235999999999,5.951658833333332,6.156638083333333,6.090860083333333,5.9030465833333325,5.600313916666667,5.442648666666666,5.639453749999999,5.770384666666666,5.909874416666665,6.085955583333333,6.071819083333334,5.940311166666667,5.847558416666668,5.314939333333333,5.339173333333332,5.61983575,5.833277666666667,6.062587083333334,6.139328083333332,5.991952666666666,5.685325249999999,5.269452499999999,5.314121916666666,5.4327435,5.756873249999999,6.147406083333333,6.180246999999999,5.8321717500000005,5.6362802499999995,5.560164333333333,5.46635375,5.5684827499999985,5.626423166666666,5.674795,5.845923583333334,5.994212583333333,5.921029749999999,5.793705083333333,5.666188083333334,5.414808416666666,5.307630666666666,5.332826333333333,5.556702333333334,5.822506999999999,5.973873333333334,6.026909249999999,6.016330916666665,5.934829666666666,5.399950666666666,5.39538275,5.4356285,5.639021,6.027390083333334,6.186401666666666,6.052633833333334,5.9191545,5.578195583333333,5.453178916666666,5.496309666666666,5.6947015,6.203278916666666,6.330315083333332,6.141491833333332,5.904056333333333,5.712059583333333,5.476643583333334,5.5124656666666665,5.741919333333333,5.669602,5.845683166666666,6.028832583333333,6.201018999999999,6.234292666666666,5.962958416666666,5.8793895833333325,5.81774675,5.847846916666668,6.0044543333333324,6.3602229166666655,6.898948583333333,7.305877833333334,7.343238583333334,7.132633583333333,7.093782249999999,6.924625083333332,6.6492518333333335,6.5493827499999995,6.650357749999999,6.519042166666666,6.5235139166666665,6.6529542500000005,6.615208833333333,6.362050083333333,6.250929499999999,6.233667583333333,6.1251435,5.890641083333333,5.806399083333332,5.8904006666666655,6.248333,6.44985025,6.4490809166666665,6.466294749999999,6.028976833333332,5.817073583333333,5.66541875,5.724080416666666,6.0195525,6.168081916666666,6.248284916666666,6.123652916666667,5.660514249999999,5.487654666666667,5.442937166666666,5.420241833333333,6.045469416666667,6.250256333333334,6.231071083333332,6.123749083333333,5.766105249999999,5.694413,5.53645925,5.7038373333333325,6.200634333333333,6.480671666666667,6.581935166666667,6.493702249999999,6.103986833333333,5.9716615,6.070136166666667,6.218184749999999,6.2842512500000005,6.2328020833333335,6.4228755,6.755516,6.487932249999999,6.083166749999999,6.043449916666666,5.935214333333334,5.934493083333334,6.38984225,6.578857833333333,6.6040054166666655,6.21529975,6.177169666666667,6.162167666666666,6.0383049999999985,6.0409015,6.16683175,6.397727916666667,6.499376083333332,6.58227175,6.578905916666667,6.458745666666665,6.262084833333333,5.8675610833333325,5.816833166666666,6.043834583333333,6.250977583333333,6.463025083333332,6.663724916666666,6.236600666666667,6.179092999999999,6.032006083333332,5.826738333333334,6.101726916666667,6.323871916666666,6.495769833333333,6.562894166666666,6.45446625,6.204817583333334,5.9079991666666665,5.815102166666666,5.885063416666667,6.1027847500000005,6.438646833333332,6.513127916666666,6.574001416666666,6.0772044166666666,5.747881666666667,5.738409249999999,5.955649749999999,6.111776333333332,6.3838799166666655,6.56900075,6.5246198333333325,6.258238166666666,6.188998166666665,6.168755083333334,6.097399416666666,5.986326916666666,6.049796916666666,6.0622505,6.287809416666666,6.609919666666666,6.629345333333333,6.495337083333333,6.266027666666666,6.0345545,5.942186416666666,5.860204333333333,5.985846083333333,6.243668916666667,6.317332583333333,6.410854666666666,6.6642538333333325,6.5880417499999995,6.298147333333333,6.03931475,5.863329749999999,5.921895249999999,5.883284333333333,5.938580166666667,6.2931947500000005,6.345605583333334,6.2826164166666665,6.252949,6.289444249999999,6.1755829166666665,6.041767,6.099322749999999,6.364261916666667,6.463505916666667,6.439704666666667,6.489711333333332,6.3640215,6.107929666666666,6.005752583333333,5.929300083333334,6.130576916666667,6.2055869166666655,6.327910916666666,6.387870833333333,6.242322583333333,6.174284666666666,5.868041916666666,5.957476916666667,6.073453916666668,6.08085875,6.263383083333333,6.489278583333333,6.314928416666667,5.992385416666667,5.923866666666666,5.875542916666667,6.22972475,6.358732333333333,6.5888591666666665,6.3824855000000005,6.189430916666666,6.200441999999999,6.0824454999999995,5.943869333333333,5.828709749999999,5.998972833333333,6.1395685,6.355318416666666,6.577223,6.441579916666666,6.203423166666666,6.2163095,6.160100083333333,5.974642666666667,5.849770249999999,6.257805416666667,6.443455166666666,6.465236916666666,6.565250249999999,6.627518166666666,6.605976833333333,6.258238166666666,6.164667999999999,6.214963166666666,6.284155083333332,6.476055666666666,6.660166749999999,6.6126604166666665,6.7272430000000005,6.7656135,6.60275525,6.477450083333333,6.318726999999999,6.404122999999999,6.5920326666666655,6.672908833333332,7.014204333333333,7.037861333333333,6.752871416666667,6.580396499999999,6.436098416666667,6.473122583333333,6.479229166666666,6.527552916666667,6.768258083333333,6.921307333333332,7.023484416666666,6.9625147499999995,6.7196939166666665,6.412441416666666,6.3959969166666655,6.436819666666666,6.400083999999999,6.514762749999999,6.807301750000001,6.7079135,6.587368583333333,6.4404259166666655,6.091340916666667,6.3227660000000006,6.352000666666666,6.314495666666666,6.566885083333333,6.674832166666666,6.56005725,6.4453785,6.310985583333333,6.112738,6.240255,6.22885925,6.357914916666666,6.29607975,6.562076749999999,6.605736416666667,6.346038333333333,6.211212666666666,6.022966416666666,5.83447975,5.962621833333333,6.050037333333332,6.200970916666667,6.305359833333333,6.49802975,6.458938,6.380081333333333,5.839432333333334,5.743409916666667,5.759325499999999,5.953582166666666,6.173082583333333,6.435521416666667,6.445763166666667,6.404892333333334,6.3194963333333325,5.884630666666666,5.7808668333333335,5.805389333333333,6.096774333333333,6.226935916666666,6.469275916666667,6.342720583333333,6.1823145833333335,5.875735249999999,5.630894916666667,5.632193166666667,5.895545583333333,6.383447166666667,6.359549749999999,6.179381499999999,6.079656666666666,5.919587249999999,5.683930833333334,5.620268499999999,5.734562583333332,6.02402425,6.194143083333333,6.205875416666665,6.407200333333333,6.273480583333332,6.125383916666666,5.923337750000001,5.749420333333333,5.792599166666665,5.730427416666667,5.729033,5.8960745,6.169332083333334,6.250737166666666,6.285886083333334,6.229484333333333,5.9752677499999995,5.829382916666667,5.728552166666666,5.740524916666666,5.957909666666667,6.058884666666667,6.028255583333333,6.128365083333333,6.191161916666666,5.814092416666667,5.641136666666667,5.530496916666666,5.456304333333333,5.728263666666666,6.154137749999999,6.442974333333333,6.686227916666667,6.933087749999999,6.768450416666667,6.57419375,6.488268833333333,6.348827166666666,6.461053666666667,6.645789833333333,6.6529542500000005,6.384745416666665,5.966660833333333,5.575166333333333,5.477557166666667,5.653830666666667,5.706193416666667,6.089513749999999,6.3726765,6.2164537499999994,5.746823833333334,5.490972416666666,5.235698,5.184441166666667,5.5401135833333335,5.908864666666666,6.0938412500000005,6.136346916666667,5.486212166666667,5.386102666666666,5.382736833333333,5.524582666666666,5.628057999999999,5.880543583333334,6.135577583333333,6.1052850833333325,5.912038166666666,5.679362916666666,5.5405463333333325,5.520110916666666,5.505253166666667,5.742832916666667,5.770192333333333,5.891747,6.061336916666666,6.0635968333333325,6.0322465,5.7461987500000005,5.559635416666667,5.3712930000000005,5.616181416666667,5.834816333333333,6.0448924166666655,6.329497666666666,6.004646666666666,5.758700416666667,5.568338499999999,5.521938083333333,5.559779666666667,5.831690916666666,6.026236083333334,6.15673425,6.068886,5.90573925,5.694461083333334,5.405672583333334,5.704798999999999,5.90545075,6.056480499999999,6.114565166666666,6.278288916666665,6.279683333333334,5.903383166666667,5.532179833333333,5.317680083333333,5.360474249999999,5.519437750000001,5.719752916666667,6.011762999999999,6.174957833333333,6.1786121666666665,5.995991666666666,5.653542166666667,5.45596775,5.242045,5.61695075,5.952716666666666,6.055759249999999,6.119758166666667,6.136346916666667,5.961035083333332,5.870349916666666,5.585311916666668,5.396296333333333,5.302053,5.535401416666666,5.8372205,5.946465833333334,6.061288833333333,6.107737333333334,6.021523916666666,5.841644166666666,5.636376416666667,5.389805083333333,5.3264793333333325,5.37057175,5.715858166666666,6.156830416666666,6.2487657500000005,6.130384583333332,6.086244083333333,5.873283,5.6244517499999995,5.578964916666667,5.615700583333332,5.719897166666666,5.895305166666667,6.271797666666667,6.054701416666667,5.837124333333333,5.7850019999999995,5.567713416666667,5.5983425,5.8751101666666665,6.0000306666666665,6.1713035,6.098313,5.852462916666666,5.708693749999999,5.431685666666667,5.525688583333333,5.793753166666666,6.071097833333333,6.235158166666667,6.114661333333334,5.874725499999999,5.506070583333333,5.377014916666667,5.625173,5.930069416666666,6.174284666666666,6.174284666666666,6.1367796666666665,6.126201333333333,5.824141833333332,5.426396499999999,5.49347275,5.720906916666667,5.9616601666666655,6.2428514999999996,6.2318404166666665,6.1171135833333325,5.920068083333333,5.636713,5.496982833333333,5.347732166666666,5.489962666666667,5.911893916666667,6.061336916666666,6.1685627499999995,6.207173666666666,6.091581333333333,5.891410416666666,5.243150916666666,5.243247083333333,5.4834233333333335,5.831835166666667,6.059653999999999,6.1857285,6.23607175,5.911509249999999,5.518428,5.432118416666666,5.614161916666667,5.889679416666667,6.031044416666667,6.126682166666668,6.2505448333333335,6.157503583333333,5.930454083333333,5.427069666666667,5.531699,5.6105556666666665,5.8718405,6.275548166666667,6.210106749999999,6.0048390000000005,5.9006905,5.951129916666666,5.861262166666666,5.671573416666667,5.724272750000001,6.019937166666666,6.546161166666667,6.64545325,6.625065916666666,6.350702416666667,6.040516833333332,5.821160666666667,5.795099499999999,5.87833175,6.3382007499999995,6.5492385,6.544045499999999,6.615208833333333,6.761670666666666,6.532842083333333,5.96199675,5.9151635833333325,6.138943416666667,6.2914156666666665,6.596263999999999,6.850576749999999,6.845816499999999,6.586839666666667,6.319977166666667,6.059653999999999,5.8811686666666665,5.878956833333333,5.958198166666667,6.500193500000001,6.77066225,6.865145999999999,6.5711164166666665,6.053210833333334,5.789377583333333,5.71215575,5.8920354999999995,6.354404833333333,6.642664416666666,6.807782583333332,6.58457975,5.851885916666666,5.556269583333333,5.488904833333333,5.830296499999999,6.373493916666667,6.609919666666666,6.608332916666666,6.395227583333334,5.71532925,5.513860083333333,5.478855416666666,5.597428916666666,5.828517416666666,6.119854333333333,6.280789249999999,6.270307083333333,6.22453175,5.733023916666666,5.497800249999998,5.36768675,5.550980416666667,6.030563583333333,6.256843750000001,6.232705916666666,6.275259666666667,6.078743083333333,5.802696666666667,5.595072833333333,5.510830833333333,5.675323916666666,5.851885916666666,6.1197100833333336,6.350846666666666,6.4054693333333335,6.321323499999999,6.03469875,5.669698166666667,5.4933285,5.441879333333333,5.3867277499999995,5.549970666666667,5.887611833333332,6.128316999999999,6.2457365,5.871984749999999,5.559971999999999,5.328017999999999,5.302581916666666,5.426588833333333,5.5608855833333335,5.8246226666666665,6.031381,6.165052666666667,5.766153333333333,5.58146525,5.334124583333334,5.171025916666666,5.671669583333332,5.815006,5.941946000000001,5.9752677499999995,5.8989114166666665,5.6067089999999995,5.416827916666667,5.3287873333333335,5.356771833333333,5.547037583333334,5.807120333333333,5.982480249999999,6.119421583333334,5.769807666666666,5.349174666666666,5.193336583333333,5.104911333333333,5.756825166666666,5.9568518333333325,6.011378333333333,6.296320166666665,6.286799666666666,6.151925916666666,6.045277083333333,6.109660666666667,6.087301916666665,6.326708833333332,6.483508583333332,6.689545666666667,6.808792333333333,6.076915916666667,5.6606585,5.398508166666667,5.303303166666666,5.3736490833333335,5.731341,6.001040416666666,6.16827425,6.248717666666667,6.008349083333333,5.660754666666667,5.40317225,5.04485525,4.89800875,5.0742822499999996,5.430964416666666,5.6661399999999995,5.756969416666667,5.671573416666667,5.519918583333333,5.237813666666667,5.044230166666666,4.998310583333333,5.23007225,5.537084333333333,5.648878083333333,5.620749333333333,5.483952250000001,5.2974369999999995,4.941043333333333,4.807612083333333,4.975567166666667,5.264307583333333,5.521072583333333,5.41471225,5.1125085,4.829153416666666,4.554357166666667,4.6128265,4.907048416666666,5.190740083333333,5.213291166666667,5.2081462499999995,5.106401916666667,4.800736166666666,4.554741833333333,4.304804666666667,4.242488666666666,4.27138675,4.5867172499999995,4.9049327499999995,5.102314833333334,5.047547916666667,4.838962416666667,4.633983166666666,4.361206416666667,3.92345575,3.8134410833333336,4.034432083333333,4.393903083333334,4.536854833333333,4.69490475,4.759144083333333,4.605037,4.300717583333333,3.9259079999999997,3.828058416666666,3.6806829999999997,3.6783269166666663,4.02169,4.331490916666667,4.7113492500000005,4.513294,4.0894875,3.686404916666666,3.581390916666667,3.7595396666666665,3.936967166666667,4.135166666666666,4.351926333333333,4.415877166666666,4.076456916666666,3.6088465,3.25442425,3.1610464166666667,3.3503505,3.6967428333333334,3.918743583333333,4.150024416666667,3.94797825,3.608606083333333,3.2982281666666666,2.9649625833333335,3.028673,3.419061583333333,3.6194248333333334,4.074197,3.94711275,3.519026833333333,3.153256916666667,2.914763583333334,3.2095144166666665,3.45579725,3.7642518333333332,3.871189166666667,4.034047416666667,3.9371595,3.4951294166666664,3.1181079999999994,2.865478166666666,2.9350547500000004,3.251972,3.692319166666666,3.9319664999999997,3.991782166666667,3.8199323333333326,3.4862339999999996,2.9811666666666667,2.856101916666667,2.924861083333333,2.971213416666666,3.1939354166666667,3.4732034166666668,3.842002583333333,3.9594701666666663,3.7155915,3.41771525,2.877018166666667,2.8526399166666665,3.0774775833333337,3.4384872499999997,3.9574025833333333,3.9877912499999995,3.800458583333333,3.434640583333333,3.1380145,3.0271824166666668,3.0866134166666668,3.1486889999999996,3.2161499166666663,3.882873416666667,4.068763583333333,3.793582666666667,3.35280275,2.9460658333333334,2.7424329166666666,2.9413536666666666,3.234085,3.5100352499999996,3.8177204999999996,3.9521614999999994,3.923023,3.6777018333333333,3.300632333333333,2.9974669166666668,2.805710583333333,2.8947609166666664,3.2020614999999997,3.6215405,3.8888357499999997,4.2033007499999995,3.9342264166666663,3.4659909166666663,3.31875975,3.1038272499999997,3.0119399999999996,3.1188773333333333,3.341984,3.60379775,3.8399830833333333,4.108480416666667,4.044962333333333,3.692463416666666,3.2626945833333334,2.8945685833333332,2.9195238333333333,3.210187583333333,3.5574935,3.8793633333333326,4.107855333333333,4.0756395,4.0523671666666665,3.867631,3.53455775,3.2658199999999997,3.1552283333333335,3.2967375833333326,3.75958775,4.180268833333333,4.352647583333333,4.163824333333333,3.72352525,3.548790416666666,3.4435359999999995,3.5297494166666663,4.08241925,4.377699,4.56306025,4.3820265,3.651881083333333,3.342224416666667,3.25875175,3.4816179999999997,4.030537333333333,4.30196775,4.3707269166666665,4.184932916666667,3.574418833333333,3.3538125,3.2317289166666665,3.36665075,3.825317666666667,4.105691583333333,4.210465166666666,4.13694575,3.641110416666667,3.2732248333333334,3.2259589166666665,3.2971703333333333,3.8938364166666664,4.081938416666667,4.162814583333333,3.9528827499999992,3.306787,3.0638699999999996,3.0458387499999997,3.1013750000000004,3.8037763333333334,3.9850505,3.9743759999999995,3.868400333333333,3.59110375,3.1677780833333333,2.854611333333333,2.762435583333333,2.9720789166666663,3.371074416666666,3.6984257499999997,3.8495035833333335,3.9882239999999993,3.6716914166666665,3.2607231666666667,2.9226973333333333,2.7075244166666668,2.87648925,3.3022190833333327,3.6319265,3.9075882499999994,3.9633168333333333,3.5934598333333327,3.2376912499999997,2.9832823333333334,2.8819226666666666,2.972607833333333,3.1603732499999997,3.561003583333333,3.805218833333333,3.8021415,3.8540715,3.734440166666667,3.3509755833333332,2.9655395833333333,2.674587333333333,2.739740249999999,3.105317833333333,3.4747901666666663,3.6838084166666665,3.862486083333333,3.7049169999999996,3.4622885,3.2222084166666662,2.8202317499999996,2.7457025833333333,3.0104494166666664,3.3454460000000004,3.573457166666666,3.796323416666666,3.846810916666667,3.667460083333333,3.459018833333333,3.0675724166666662,2.7989308333333334,2.714688833333333,3.214659333333333,3.6314937499999993,3.8120947499999995,3.8493593333333336,3.3787196666666666,3.069832333333333,2.925967,2.8561980833333336,3.0741598333333333,3.2755809166666663,3.4438245,3.69756025,3.8115177499999997,3.552012,3.3265011666666666,3.139408916666667,2.9222164999999998,3.2546646666666663,3.7256889999999996,4.167142083333333,4.544692416666666,4.793042833333333,4.462662249999999,4.044721916666666,3.7903129999999994,3.4556049166666667,3.702224333333333,3.938409666666667,4.086410166666666,4.104970333333333,3.9238885,3.70679225,3.3270300833333333,2.976646833333333,2.9346219999999996,3.127868916666666,3.3800179166666666,3.7224193333333333,3.7177071666666666,3.7113601666666667,3.223362416666666,2.788160166666666,2.8522552499999994,3.1943681666666666,3.5705721666666665,3.83430925,3.86344775,3.673759,3.3971355833333337,3.0660337500000003,2.7789281666666668,2.8859616666666668,3.2127840833333337,3.5534544999999995,3.853446416666667,3.704724666666666,3.4112239999999994,3.1550360000000004,2.8788934166666666,